1  106,100 -209,500 -271,700 -3,100 226,700 96,100 -232,100 -289,800 -12,600 232,300 123,800 -183,700 -265,600 4,300 230,500 110,900 -207,100 -303,400 -18,500 252,300 139,900 -195,700 -282,100 -8,200 237,800 123,700 -204,200 -283,900 -4,800 247,800 134,800 -226,000 -307,500 -25,600 233,500 105,500 -208,100 -266,500 -5,900 241,100 118,400 -214,300 -277,300 -3,800 240,600 129,400 -204,800 -304,000 -38,900 230,700 139,100 -176,700 -286,200 -27,000 223,500 118,700 -196,600 -280,700 -21,600 237,900 130,900 -182,100 -276,400 -35,500 234,800 97,300 -225,500 -284,700 1,300 236,900 93,700 -210,600 -289,000 -18,500 240,200 128,100 -193,900 -277,300 -3,200 263,900 143,300 -208,900 -292,700 -9,600 243,100 114,300 -210,600 -270,100 9,700 264,600 153,400 -203,100 -276,700 -10,700 227,600 131,000 -189,500 -281,000 15,900 260,900 140,700 -189,700 -287,500 -19,100 247,600 149,000 -177,700 -240,900 34,500 242,000 110,800 -206,200 -269,900 18,900 265,300 128,400 -190,400 -259,800 11,200 262,400 166,700 -183,700 -280,700 12,000 266,000 135,300 -168,400 -261,700 -31,300 266,800 156,300 -196,500 -276,200 2,400 260,200 150,000 -186,800 -284,100 -8,500 262,300 166,100 -162,300 -276,300 6,700 288,900 142,700 -205,300 -293,100 -1,100 254,700 153,000 -168,500 -266,400 18,800 294,600 131,900 -215,700 -263,800 6,900 255,500 147,100 -204,300 -272,500 14,900 256,900 136,700 -197,600 -283,100 11,400 265,400 118,400 -225,400 -281,300 -1,700 255,900 139,000 -199,600 -269,200 4,300 246,700 133,200 -194,900 -277,900 2,700 262,200 119,500 -218,300 -269,200 3,800 251,200 160,600 -181,300 -292,300 -20,500 234,900 123,400 -198,100 -283,400 -14,600 236,000 121,700 -199,900 -281,600 -23,100 216,400 113,400 -212,800 -277,800 6,800 229,800 101,400 -204,800 -274,200 0,200 230,800 108,300 -205,300 -290,700 -27,500 234,800 133,800 -203,400 -286,800 -2,200 259,700 114,400 -224,100 -282,300 -17,400 228,400 113,400 -208,400 -294,600 -27,200 231,000 103,900 -217,900 -283,500 -13,600 224,500 112,400 -198,000 -281,100 -27,000 221,500 117,400 -210,100 -291,400 -5,400 259,700 130,800 -213,400 -288,800 -14,200 223,300 108,600 -201,700 -297,000 -2,800 262,700 127,400 -222,800 -319,500 -25,200 244,600 108,000 -219,400 -296,800 -29,400 226,900 125,000 -205,900 -293,500 -27,500 227,600 106,500 -229,500 -292,500 -2,500 232,400 111,300 -224,400 -301,800 -9,800 243,700 109,800 -196,300 -265,200 0,300 203,500 100,400 -197,300 -280,200 -26,100 237,800 125,200 -218,700 -318,200 -40,800 225,900 121,600 -187,500 -312,100 -25,600 244,700 103,800 -205,600 -275,400 -11,100 226,800 94,200 -226,100 -296,200 -31,300 236,700 125,900 -210,100 -312,200 -43,100 218,400 105,700 -199,700 -280,200 -20,500 231,200 109,500 -226,400 -330,200 -38,800 236,000 128,700 -197,800 -292,400 -27,300 201,300 89,500 -229,400 -315,500 -24,600 229,700 114,900 -223,500 -327,600 -39,700 220,400 86,800 -221,100 -283,200 -31,900 197,300 101,300 -205,200 -306,900 -32,800 218,600 93,300 -221,400 -279,400 1,700 232,600 107,800 -242,700 -335,600 -32,900 241,300 124,000 -209,000 -299,900 -28,700 215,600 100,300 -203,800 -279,500 -44,500 206,200 120,700 -195,300 -290,500 -18,900 243,200 115,800 -217,900 -287,100 -6,200 239,900 117,700 -213,900 -294,600 -17,000 201,100 98,500 -204,500 -301,600 -32,000 239,400 132,200 -219,700 -299,000 -23,000 214,300 85,700 -221,600 -286,100 -10,200 237,700 117,600 -202,000 -300,900 -7,200 230,800 82,600 -229,100 -295,700 -11,600 242,500 138,600 -183,800 -300,500 -41,400 200,600 78,000 -232,500 -296,600 -3,300 270,100 150,800 -240,100 -320,200 -22,900 229,200 104,700 -209,100 -291,600 -22,800 231,000 78,300 -244,500 -300,000 -28,800 229,300 106,600 -213,600 -294,500 -22,600 231,000 102,200 -202,600 -259,700 -2,200 201,500 105,300 -193,700 -315,300 -51,500 226,500 120,500 -222,000 -296,400 -13,200 216,400 91,800 -214,800 -298,600 -19,400 224,700 106,200 -203,100 -289,400 -1,900 267,700 124,300 -216,200 -286,000 0,100 235,200 115,400 -220,600 -300,100 -18,100 259,400 116,100 -245,600 -318,100 -16,300 241,100 119,500 -209,600 -295,300 -12,900 224,700 96,000 -219,100 -301,200 -26,900 226,700 113,300 -200,300 -300,500 -25,000 237,900 117,700 -218,400 -285,400 -9,900 229,700 132,300 -214,400 -322,900 -49,500 219,500 97,600 -210,200 -270,000 -26,200 202,900 95,700 -241,700 -322,800 -43,400 214,900 98,700 -230,200 -302,500 -26,800 223,900 98,600 -211,600 -271,700 -5,800 204,100 87,100 -227,100 -282,500 0,000 191,300 101,000 -211,800 -328,400 -51,400 215,900 107,600 -238,400 -323,400 -37,000 205,300 88,400 -236,300 -313,600 -26,600 226,900 120,100 -219,800 -301,400 -14,200 252,500 128,700 -228,600 -307,400 -22,500 215,800 82,700 -257,200 -317,600 -19,400 236,900 98,400 -256,200 -319,700 -28,200 235,800 111,000 -224,000 -321,300 -54,300 212,000 92,800 -241,800 -313,500 -21,200 237,800 106,500 -236,400 -304,200 -33,800 196,500 69,200 -245,800 -327,400 -47,300 201,000 84,700 -228,800 -292,200 -18,500 219,700 92,000 -245,300 -328,300 -26,600 223,000 86,000 -220,100 -273,400 -28,300 195,800 102,600 -245,700 -329,500 -19,100 221,300 95,000 -214,500 -311,100 -44,300 208,500 77,100 -254,300 -305,500 -27,000 214,000 99,300 -208,600 -290,400 -14,400 202,100 69,800 -262,800 -323,800 -39,600 213,500 112,100 -196,600 -323,800 -51,200 206,000 88,600 -251,500 -310,400 -24,400 219,000 88,100 -205,500 -277,700 -27,600 203,800 69,700 -250,200 -309,200 -37,900 215,700 102,900 -221,300 -308,600 -26,600 226,700 102,200 -207,700 -284,600 -41,800 201,200 83,400 -213,100 -295,700 -50,500 201,300 95,500 -226,300 -296,200 -27,900 224,600 123,200 -200,700 -318,400 -43,100 225,700 102,400 -213,900 -295,200 -16,500 227,400 96,200 -242,200 -295,300 13,400 236,900 85,800 -216,200 -305,500 -19,200 246,500 117,700 -202,000 -258,900 -16,900 217,200 111,600 -208,200 -314,500 -30,500 235,200 102,600 -222,100 -275,600 0,800 242,100 127,400 -201,600 -268,100 6,900 244,600 137,500 -190,500 -292,600 -25,200 234,100 138,000 -172,500 -269,600 -9,400 234,200 97,200 -205,500 -278,100 -24,500 226,300 112,200 -196,000 -277,100 -20,600 253,500 126,800 -208,500 -299,200 -29,800 227,800 117,500 -206,500 -288,300 -10,400 229,000 99,000 -224,500 -261,100 27,100 249,000 97,500 -228,400 -314,300 -35,600 225,700 117,800 -180,500 -270,400 -27,200 222,300 100,100 -224,000 -271,800 15,600 236,100 112,400 -195,200 -261,200 11,000 238,300 113,900 -211,700 -287,300 2,800 273,000 158,700 -213,300 -293,300 -8,500 260,000 145,500 -212,500 -306,500 -1,000 254,300 122,500 -188,000 -261,500 28,100 285,300 104,100 -216,700 -256,700 3,400 257,500 146,200 -183,400 -257,300 4,100 253,500 152,300 -181,900 -248,300 -1,600 225,800 123,200 -200,600 -273,800 12,200 273,200 155,400 -188,600 -230,400 42,600 258,500 96,700 -231,700 -289,600 7,700 257,700 119,700 -186,300 -249,900 29,700 274,100 119,000 -229,500 -280,400 14,400 261,700 168,800 -211,400 -310,300 -3,600 269,000 128,500 -198,700 -255,800 29,400 288,900 116,200 -258,300 -306,000 50,100 253,600 134,300 -190,400 -249,900 17,100 231,800 137,900 -177,900 -252,500 -6,700 250,900 146,400 -189,900 -274,800 7,200 230,200 104,900 -211,200 -276,100 28,000 247,900 136,400 -215,400 -269,000 -19,700 241,900 113,600 -187,200 -267,700 -52,400 207,000 92,600 -241,100 -277,000 -24,300 208,000 99,400 -189,500 -253,400 -62,100 184,400 65,000 -296,600 -367,200 -50,500 205,200 105,000 -239,600 -272,000 -53,800 149,000 39,300 -325,800 -296,400 -34,700 192,700 75,100 -342,800 -313,500 -30,500 182,800 76,500 -233,700 -281,600 -32,100 176,600 29,300 -256,800 -322,700 -11,800 298,700 110,400 -279,400 -332,600 4,000 167,500 13,200 -236,100 -268,700 15,200 246,500 167,400 -201,600 -338,100 -28,300 324,200 170,200 -161,900 -273,000 -41,200 276,500 142,400 -91,800 -186,600 29,900 297,100 226,600 -96,300 -193,700 121,800 380,700 192,300 -122,300 -198,500 107,900 421,800 282,600 -96,000 -183,900 147,900 361,400 295,300 -73,000 -148,300 141,200 390,100 228,000 -97,100 -135,000 127,600 354,100 254,300 -41,800 -107,500 134,900 371,500 229,600 -124,700 -136,200 125,300 406,900 287,300 -66,900 -186,600 68,200 309,100 228,600 -59,200 -180,500 131,000 387,400 196,700 -190,400 -235,700 104,700 350,200 208,300 -147,700 -196,000 49,800 296,300 216,100 -153,400 -241,900 45,100 323,000 166,400 -277,400 -332,300 56,000 304,900 165,000 -198,800 -299,300 -29,700 279,800 108,200 -208,200 -264,100 20,300 210,000 52,900 -227,100 -282,100 45,500 232,500 47,400 -264,300 -317,200 -58,100 216,200 80,200 -272,500 -350,200 -78,000 169,900 54,000 -241,600 -314,200 -34,200 125,500 51,100 -266,100 -367,500 -84,200 159,800 36,000 -300,500 -350,600 -104,900 185,200 52,800 -292,800 -361,800 -95,000 154,000 -20,400 -274,400 -350,300 -75,500 207,700 92,400 -308,400 -390,100 -122,800 113,300 10,100 -268,600 -330,900 -71,700 167,900 61,200 -259,400 -361,200 -86,400 161,000 49,200 -276,300 -325,200 -28,600 208,700 48,700 -272,700 -311,500 -48,100 182,100 91,100 -235,400 -327,400 -45,200 196,100 87,900 -210,300 -275,700 -23,100 221,300 126,100 -206,700 -297,400 -17,600 226,600 125,300 -224,300 -331,900 0,800 287,200 168,800 -166,800 -223,100 81,100 283,500 117,400 -180,300 -240,600 33,900 258,900 157,500 -160,700 -211,100 77,800 295,300 181,600 -137,200 -221,900 51,600 303,400 194,400 -140,300 -212,100 48,100 334,100 242,800 -121,400 -214,100 87,200 325,800 156,300 -141,100 -212,200 66,900 321,100 181,000 -145,500 -221,000 57,000 290,900 165,100 -140,700 -228,100 39,900 296,500 187,200 -138,300 -234,800 52,000 299,300 155,700 -154,800 -244,800 46,800 316,400 172,100 -161,300 -251,500 41,600 292,500 174,400 -162,800 -244,400 36,800 280,700 118,200 -207,100 -280,900 0,000 262,900 138,500 -194,600 -264,400 11,000 246,100 122,400 -187,300 -276,300 -38,300 238,400 136,100 -183,800 -281,700 -3,700 232,000 100,800 -227,800 -310,800 -16,500 245,000 104,300 -228,100 -289,600 -12,600 228,500 118,700 -225,300 -316,900 -27,400 229,600 117,300 -218,600 -287,600 -25,500 213,700 108,800 -205,900 -283,300 -8,200 240,600 155,500 -150,000 -309,100 -40,800 235,400 122,000 -203,000 -288,300 6,400 242,000 115,800 -220,300 -322,400 -34,800 238,700 130,400 -196,800 -277,000 -7,600 233,000 130,100 -191,600 -277,100 -12,100 234,700 118,000 -195,800 -267,800 18,300 282,400 145,000 -187,100 -248,700 29,200 275,400 165,800 -149,500 -235,700 53,100 310,800 163,600 -145,300 -222,200 22,800 274,900 165,400 -135,700 -222,400 22,100 275,600 178,400 -150,400 -241,400 16,500 273,700 165,900 -152,700 -231,000 45,100 293,000 168,200 -130,300 -205,000 44,400 278,000 177,300 -175,700 -248,700 32,800 295,900 167,300 -184,900 -259,300 39,000 271,800 133,100 -169,200 -238,200 20,400 282,700 163,000 -170,000 -242,400 33,200 271,200 153,700 -138,400 -276,300 -42,700 241,500 138,300 -192,900 -270,700 -1,100 257,700 131,400 -196,500 -272,000 -12,700 239,500 140,400 -166,000 -286,100 -27,200 220,700 104,000 -213,700 -294,300 -12,700 217,900 119,300 -194,700 -309,100 -51,400 205,300 98,600 -206,600 -288,100 -60,300 177,000 76,600 -242,100 -313,300 -30,200 195,100 80,600 -223,900 -314,700 -58,200 188,500 72,700 -259,300 -332,200 -57,500 199,900 79,800 -224,600 -314,300 -50,200 195,800 78,400 -233,900 -328,500 -65,700 181,600 62,900 -235,000 -306,400 -68,400 156,600 58,500 -269,600 -343,500 -73,400 184,300 88,300 -250,100 -350,300 -58,000 177,500 44,600 -256,700 -335,000 -54,300 185,700 57,400 -232,700 -297,400 -46,700 164,600 75,700 -224,600 -335,200 -63,200 197,900 66,900 -240,400 -323,800 -46,900 219,900 94,700 -235,600 -324,400 -57,400 197,300 100,600 -223,000 -314,800 -44,400 208,900 134,800 -170,300 -326,100 -76,400 193,900 84,300 -225,200 -314,900 -50,600 216,200 122,300 -190,000 -315,100 -64,300 200,200 92,400 -234,000 -310,500 -43,400 229,000 95,700 -258,400 -305,400 -35,700 183,500 77,800 -238,400 -327,000 -39,400 223,500 97,400 -221,100 -326,400 -54,200 249,000 160,300 -201,000 -321,300 -53,700 216,800 92,500 -251,800 -344,300 -32,800 207,100 81,900 -248,900 -323,400 -59,600 170,300 80,000 -230,000 -326,800 -64,600 181,300 90,800 -214,000 -330,200 -81,300 193,200 107,400 -232,000 -361,700 -80,700 198,800 108,600 -206,600 -326,200 -100,300 165,700 70,700 -253,500 -341,700 -61,100 215,200 74,500 -273,200 -343,300 -87,300 166,900 73,800 -238,200 -341,800 -71,800 197,100 60,800 -269,300 -355,700 -72,800 188,300 98,300 -228,400 -337,600 -87,200 167,400 70,700 -223,600 -301,600 -75,500 175,300 63,500 -255,700 -339,800 -90,000 184,600 103,200 -238,100 -338,700 -79,000 168,700 75,000 -261,000 -366,000 -86,900 195,100 87,000 -233,600 -323,700 -39,900 214,300 71,600 -266,600 -345,700 -72,800 210,000 122,000 -189,800 -323,900 -95,100 194,200 99,300 -242,800 -347,600 -81,600 222,400 106,400 -214,600 -304,300 -45,400 212,900 89,500 -242,000 -338,100 -53,800 235,300 138,200 -208,500 -336,200 -68,800 209,700 142,400 -174,800 -281,500 -43,600 186,700 101,700 -258,600 -327,400 -47,200 203,800 106,500 -212,600 -304,600 -38,100 234,000 111,000 -233,000 -303,600 -27,900 246,500 144,300 -201,300 -307,900 -37,500 260,400 164,400 -165,500 -294,200 -69,700 245,800 173,200 -169,800 -282,500 -26,300 224,700 110,500 -219,700 -350,000 -61,200 220,300 116,800 -204,000 -311,200 -44,800 214,700 103,700 -201,500 -302,100 -53,700 216,900 113,600 -206,600 -316,000 -59,300 208,100 102,200 -206,500 -293,600 -5,700 226,800 90,300 -191,300 -264,400 -51,900 210,500 129,900 -169,600 -268,300 -59,000 196,100 121,200 -210,500 -297,600 1,600 239,400 124,400 -189,600 -271,800 -4,900 260,600 166,000 -173,100 -304,100 -14,600 284,300 193,900 -165,000 -291,800 -34,400 251,400 145,600 -182,300 -261,900 11,700 279,900 170,400 -130,600 -245,100 -28,900 202,600 144,200 -175,000 -297,300 -31,300 249,500 146,700 -202,100 -313,400 3,500 299,400 157,100 -228,900 -322,500 -8,300 262,700 132,100 -197,900 -288,500 -21,900 245,300 149,200 -205,300 -268,100 21,200 276,900 92,800 -224,700 -279,600 -64,600 176,100 139,800 -208,400 -406,500 -63,200 263,500 146,500 -209,000 -321,300 -83,600 221,900 145,200 -190,900 -310,200 -43,400 229,900 125,500 -204,300 -295,300 -44,600 189,100 133,800 -189,900 -303,800 -57,300 211,700 136,700 -127,800 -306,600 -31,200 220,700 101,100 -249,500 -307,400 -55,700 230,700 115,400 -259,800 -322,800 -22,500 257,000 73,200 -303,400 -298,000 -23,400 237,400 137,400 -167,900 -273,400 -17,200 206,900 126,700 -183,400 -282,800 -21,600 254,000 166,500 -206,900 -357,700 -58,300 240,700 145,500 -163,800 -272,800 -15,100 223,400 70,000 -211,000 -310,000 -48,100 233,500 126,900 -215,200 -301,200 -35,500 216,300 122,900 -209,600 -341,500 -68,500 224,300 150,500 -197,700 -324,800 -85,500 195,700 144,900 -220,000 -350,300 -86,700 183,700 94,100 -231,600 -341,300 -87,700 175,200 91,600 -235,200 -374,000 -86,300 193,500 84,600 -264,700 -391,800 -107,200 202,100 101,700 -266,800 -399,800 -127,500 170,400 72,800 -265,900 -353,400 -111,000 130,200 52,800 -280,900 -359,600 -97,800 169,300 93,900 -257,400 -374,700 -95,900 206,000 106,500 -268,100 -392,700 -116,200 174,500 82,900 -245,100 -350,100 -97,500 156,100 35,100 -269,900 -355,200 -89,300 170,600 71,700 -276,600 -392,500 -137,600 162,600 68,900 -291,900 -399,600 -94,300 201,700 77,200 -262,400 -393,600 -131,300 185,100 58,100 -306,600 -387,700 -113,500 168,800 65,900 -300,300 -393,800 -116,700 162,100 87,100 -249,300 -392,200 -132,700 118,200 0,100 -291,700 -391,700 -131,600 166,500 41,000 -286,600 -397,700 -152,900 122,500 30,800 -296,200 -408,200 -135,600 137,300 43,500 -283,500 -381,700 -98,500 162,500 21,000 -335,400 -378,300 -95,500 129,600 -10,500 -280,600 -369,200 -147,100 111,300 17,500 -297,000 -394,800 -128,600 121,800 21,400 -318,100 -416,600 -155,600 114,100 34,900 -274,400 -385,900 -148,200 106,400 42,600 -287,600 -403,000 -126,500 122,000 42,700 -300,600 -406,800 -130,500 131,500 16,300 -301,600 -376,400 -125,700 134,400 25,800 -318,500 -412,800 -105,600 151,900 54,600 -278,600 -382,400 -97,500 130,200 23,500 -284,800 -380,500 -124,000 156,300 67,100 -289,300 -407,200 -135,100 141,600 65,800 -282,700 -395,000 -142,400 108,000 15,000 -288,900 -392,000 -155,400 129,800 37,500 -308,400 -382,200 -140,300 120,400 56,500 -289,900 -421,700 -156,100 152,200 65,200 -285,900 -394,600 -179,500 82,500 37,900 -291,900 -405,200 -133,200 134,600 46,900 -297,300 -413,600 -156,700 125,200 30,000 -316,800 -401,800 -156,200 124,800 39,200 -306,800 -422,100 -147,000 135,500 46,200 -316,900 -451,200 -189,200 139,100 51,400 -299,000 -390,200 -145,400 124,200 56,300 -303,200 -441,700 -175,700 117,000 35,100 -297,100 -409,200 -141,800 126,000 25,800 -309,100 -425,700 -169,500 112,400 28,200 -263,000 -380,700 -141,000 118,500 32,000 -296,600 -428,700 -183,500 112,500 34,900 -302,800 -392,600 -121,600 129,900 47,300 -276,700 -425,400 -163,800 112,200 20,600 -324,500 -394,700 -98,800 157,300 33,700 -323,300 -427,100 -162,800 117,400 37,000 -281,400 -391,700 -135,700 131,000 25,300 -296,200 -397,900 -124,900 124,300 30,500 -300,900 -394,100 -155,300 81,500 23,100 -269,500 -378,500 -119,800 128,300 8,500 -296,200 -405,700 -168,900 124,500 30,600 -286,600 -403,700 -157,100 133,600 61,700 -307,300 -413,400 -150,400 120,000 36,300 -305,800 -412,800 -130,900 129,100 32,900 -298,600 -399,600 -167,100 82,800 114,400 -249,200 -412,500 -157,400 114,700 49,300 -268,600 -415,700 -155,500 125,400 24,000 -304,000 -419,300 -158,400 154,200 49,900 -324,700 -406,800 -134,700 105,800 30,900 -280,300 -415,900 -130,400 139,800 35,200 -306,900 -402,900 -138,300 125,500 33,400 -281,300 -398,500 -129,800 152,900 35,300 -318,300 -412,800 -138,800 133,600 7,000 -296,100 -406,900 -112,400 197,700 38,700 -363,300 -415,700 -116,200 123,500 26,100 -297,900 -400,500 -141,800 142,400 69,800 -293,900 -415,900 -140,800 133,800 51,700 -267,100 -403,900 -142,300 139,700 45,900 -313,300 -413,100 -131,300 133,000 26,100 -331,600 -438,800 -127,900 134,600 39,000 -288,900 -391,600 -143,200 109,400 30,700 -278,300 -393,600 -155,100 127,500 53,200 -271,500 -416,200 -162,700 129,600 24,600 -290,600 -387,000 -120,800 129,600 39,300 -282,800 -392,400 -104,300 157,600 22,300 -305,800 -398,100 -149,300 114,200 45,100 -259,900 -408,700 -150,200 137,300 44,100 -301,300 -394,500 -131,600 133,700 48,000 -269,300 -386,800 -123,800 120,600 7,400 -311,800 -401,100 -146,000 148,400 51,800 -286,600 -384,500 -153,000 119,700 34,400 -292,700 -385,600 -133,000 132,400 29,100 -308,000 -399,800 -129,900 126,100 23,300 -287,600 -405,200 -139,400 142,800 20,900 -320,100 -427,800 -131,500 130,300 27,500 -296,200 -419,600 -144,800 141,200 26,600 -296,700 -418,000 -149,000 147,200 49,300 -312,600 -408,300 -142,900 127,100 49,200 -267,300 -394,900 -114,200 159,500 33,400 -310,600 -401,100 -130,300 153,800 50,500 -270,600 -385,500 -136,000 134,300 54,000 -288,500 -376,000 -113,700 150,100 46,700 -281,100 -382,500 -124,000 129,000 54,500 -272,400 -373,100 -124,200 136,400 54,800 -290,500 -394,100 -103,300 178,700 35,500 -337,300 -425,000 -140,100 146,200 38,500 -290,800 -397,100 -130,500 145,300 32,700 -305,400 -408,300 -132,000 148,200 20,900 -299,300 -398,800 -137,600 130,800 55,800 -254,100 -385,500 -154,700 104,800 20,600 -268,100 -373,300 -170,000 128,800 46,800 -292,600 -407,700 -125,500 164,100 51,100 -285,800 -399,300 -143,000 136,800 51,100 -281,700 -389,000 -115,200 130,400 40,300 -228,300 -332,200 -150,800 135,700 77,100 -283,700 -427,000 -163,400 138,900 48,600 -281,600 -370,400 -94,400 174,800 43,000 -304,900 -385,500 -112,800 143,500 24,000 -299,500 -377,900 -117,400 134,700 66,200 -235,400 -353,800 -140,100 126,500 48,400 -257,200 -367,200 -109,300 134,400 57,000 -259,300 -374,800 -107,700 142,100 66,900 -234,900 -360,200 -119,800 163,200 51,000 -273,600 -376,600 -87,400 203,700 74,800 -261,300 -336,900 -87,400 176,100 81,900 -252,500 -302,800 -64,600 177,800 84,300 -240,300 -337,300 -48,900 198,200 89,300 -214,600 -329,400 -67,300 199,600 107,000 -220,500 -306,600 -42,700 236,400 120,700 -223,100 -301,800 -32,500 202,300 96,800 -186,300 -290,900 -64,900 202,600 123,100 -199,700 -308,700 -35,100 220,100 106,700 -203,800 -282,900 -25,600 225,700 109,900 -206,400 -314,700 -56,900 227,800 151,100 -188,400 -323,500 -56,600 211,000 119,900 -172,100 -251,900 -34,400 188,200 97,000 -222,600 -265,700 -35,600 187,400 135,500 -206,100 -343,100 -94,200 183,400 114,300 -175,700 -307,900 -84,400 206,600 127,000 -222,200 -327,100 -100,700 173,600 104,700 -197,700 -301,200 -56,500 176,300 78,200 -254,900 -359,200 -47,600 208,000 86,200 -240,400 -348,800 -63,700 198,700 72,900 -260,300 -367,000 -99,400 197,600 91,000 -198,000 -275,100 -88,800 160,000 45,100 -240,600 -277,500 -29,400 169,200 69,500 -229,800 -352,300 -111,000 179,800 125,900 -214,100 -326,900 -58,500 204,000 72,300 -226,600 -290,600 -30,300 217,200 99,600 -200,300 -367,900 -50,300 173,600 100,800 -245,500 -316,200 -41,000 228,900 105,900 -204,700 -309,500 -20,600 246,000 153,100 -152,200 -286,100 -94,300 206,300 114,600 -192,100 -263,700 -34,000 222,500 73,600 -233,000 -320,100 -66,100 260,500 131,400 -198,100 -286,700 18,000 221,300 77,500 -184,600 -276,000 -16,600 273,600 93,500 -182,800 -334,700 -55,700 197,800 150,700 -134,700 -265,200 -4,400 234,800 110,800 -243,200 -322,900 -33,800 237,600 105,300 -223,000 -334,400 -30,300 240,900 132,200 -227,000 -329,100 -59,300 214,000 149,500 -165,000 -276,400 -110,700 165,300 48,900 -262,400 -269,500 -55,000 188,400 117,500 -204,000 -341,000 -84,200 211,000 100,800 -269,800 -334,800 -52,000 218,600 49,300 -294,000 -374,300 -88,800 177,000 106,800 -215,300 -353,700 -90,800 145,300 65,700 -280,400 -368,400 -82,900 192,100 102,200 -276,800 -433,600 -87,500 172,500 36,000 -278,300 -355,700 -102,200 176,400 59,800 -277,500 -387,500 -125,500 134,400 69,500 -280,900 -410,600 -134,000 131,100 32,400 -278,100 -388,000 -117,800 183,100 92,100 -346,900 -405,500 -125,600 150,300 78,100 -258,300 -389,500 -133,200 139,800 39,200 -299,400 -395,000 -128,800 162,800 79,500 -237,600 -387,600 -130,500 140,000 24,200 -273,500 -362,300 -123,900 144,000 56,400 -253,400 -368,200 -95,300 201,200 75,500 -294,200 -398,600 -85,900 176,200 71,700 -262,600 -372,200 -77,600 184,500 44,100 -251,700 -377,900 -101,500 188,600 79,300 -264,500 -371,900 -112,700 130,900 49,100 -262,700 -375,000 -101,700 177,900 86,100 -255,900 -364,600 -110,300 150,400 59,100 -237,000 -326,900 -85,200 179,400 73,000 -241,200 -411,100 -89,600 213,800 108,800 -264,400 -373,800 -100,000 172,200 98,400 -226,200 -350,600 -77,400 205,000 87,200 -232,900 -364,100 -105,700 176,100 101,400 -243,800 -319,800 -70,100 169,300 87,500 -233,100 -362,800 -108,100 182,700 77,800 -259,900 -372,900 -105,300 180,500 89,400 -266,900 -399,500 -129,600 149,500 69,500 -261,800 -344,200 -99,100 157,400 76,200 -242,200 -357,600 -153,600 141,000 86,400 -257,400 -404,200 -122,500 154,600 48,200 -270,100 -382,500 -122,100 153,800 49,600 -286,900 -387,200 -110,100 162,500 56,600 -295,000 -415,600 -147,000 138,600 57,000 -278,900 -390,400 -124,800 159,200 70,600 -273,600 -356,200 -62,300 166,900 32,800 -304,600 -402,500 -152,000 131,000 63,100 -258,000 -353,300 -103,900 121,700 34,600 -274,600 -383,500 -133,200 160,500 87,300 -245,400 -383,200 -126,300 151,300 58,800 -264,100 -342,400 -57,900 156,400 22,400 -274,400 -375,500 -110,500 168,400 78,600 -251,400 -373,200 -96,400 175,800 76,600 -243,200 -336,900 -79,100 157,000 46,100 -242,100 -335,000 -70,300 182,600 68,800 -241,600 -351,100 -98,300 193,100 87,700 -249,200 -343,800 -94,300 193,400 112,900 -218,400 -335,400 -60,100 204,600 140,700 -197,300 -336,900 -103,000 185,300 62,500 -241,000 -308,800 -71,700 166,100 73,200 -247,600 -347,700 -93,800 180,600 94,700 -205,200 -334,000 -89,500 193,800 116,700 -221,300 -327,000 -46,600 256,500 142,200 -241,100 -351,500 -112,900 154,500 81,900 -258,200 -383,600 -113,000 170,600 78,500 -265,200 -386,600 -105,800 185,300 91,900 -260,000 -361,700 -113,900 142,700 55,400 -262,500 -329,500 -56,400 191,600 56,000 -305,500 -404,000 -126,300 163,500 66,600 -276,900 -416,200 -168,900 113,300 72,000 -265,400 -402,300 -162,100 126,600 37,400 -301,900 -425,500 -162,400 111,200 39,900 -273,900 -389,200 -152,800 146,700 53,200 -317,400 -432,800 -153,100 104,900 4,200 -311,700 -432,900 -191,000 86,900 23,800 -286,100 -414,600 -145,100 122,400 -3,700 -324,000 -436,500 -188,500 95,200 22,000 -308,000 -409,800 -138,300 138,000 24,000 -300,400 -436,300 -164,200 152,900 48,600 -295,500 -427,500 -180,200 110,100 54,500 -299,300 -431,200 -166,900 117,700 39,800 -290,900 -404,200 -128,800 125,500 21,600 -291,200 -401,300 -132,500 155,500 63,000 -250,400 -379,700 -141,000 148,500 80,300 -283,700 -366,000 -71,300 159,000 91,700 -239,500 -381,100 -101,900 194,100 83,700 -248,700 -366,100 -102,900 178,700 96,800 -206,700 -343,600 -130,600 182,400 112,200 -208,700 -285,800 -60,200 152,400 60,100 -248,700 -345,900 -109,200 191,700 148,800 -181,000 -358,900 -134,800 175,300 112,400 -223,900 -344,900 -70,500 224,300 113,400 -278,400 -348,100 -58,600 209,600 109,500 -249,000 -395,300 -118,900 184,800 136,700 -211,300 -354,200 -125,600 155,900 78,800 -250,700 -368,300 -103,200 185,000 121,100 -190,700 -347,600 -146,900 125,500 74,700 -225,200 -383,800 -143,400 159,700 78,700 -247,500 -359,600 -108,000 126,100 25,500 -256,100 -376,500 -121,700 147,400 49,800 -258,100 -357,900 -79,200 129,200 16,800 -272,900 -363,900 -110,400 131,600 49,400 -276,700 -399,300 -124,400 176,400 101,900 -253,500 -407,500 -129,800 143,300 72,100 -259,900 -380,500 -116,500 171,900 78,200 -258,100 -415,800 -121,800 174,400 75,200 -237,400 -349,600 -114,800 169,000 79,100 -266,600 -363,000 -92,400 204,800 106,000 -251,800 -366,800 -119,500 163,900 102,200 -216,700 -365,900 -144,100 115,200 60,800 -237,200 -363,700 -121,000 154,900 66,800 -267,000 -383,800 -134,800 142,900 77,500 -254,000 -399,800 -147,400 142,300 70,900 -261,000 -376,800 -106,200 185,900 58,900 -301,800 -410,200 -145,000 152,100 72,700 -280,700 -381,100 -114,100 147,300 56,400 -273,900 -396,600 -162,600 132,600 67,100 -297,900 -432,400 -155,300 110,300 30,100 -295,200 -392,400 -89,700 151,800 32,000 -312,600 -425,400 -151,300 122,000 45,600 -282,000 -410,100 -142,400 127,000 43,600 -269,200 -385,600 -141,700 137,300 25,100 -313,500 -394,900 -105,500 127,700 16,700 -286,100 -364,400 -162,200 68,700 23,400 -280,400 -394,400 -169,000 110,600 34,600 -291,400 -409,200 -162,000 126,100 62,800 -273,400 -410,000 -146,200 138,100 29,700 -292,500 -414,100 -155,300 149,600 85,500 -290,800 -438,700 -186,600 109,700 33,700 -301,800 -417,900 -136,500 142,800 18,400 -339,500 -431,900 -180,600 108,900 22,400 -315,800 -415,000 -144,800 135,300 33,500 -329,800 -443,300 -206,000 78,900 31,600 -316,000 -459,400 -155,300 115,800 15,700 -315,100 -436,800 -201,900 82,600 0,800 -301,400 -453,200 -208,900 74,900 12,700 -317,000 -443,300 -186,100 86,400 -8,700 -309,300 -442,200 -188,400 122,600 16,400 -309,300 -422,000 -193,100 69,100 -20,500 -318,500 -415,600 -164,400 109,500 35,400 -282,800 -403,300 -187,200 63,900 4,400 -306,100 -403,600 -149,800 127,300 47,200 -277,100 -422,000 -177,700 109,700 21,100 -268,500 -371,100 -170,000 108,700 24,700 -308,900 -406,900 -132,800 140,900 22,600 -311,500 -426,400 -149,900 126,300 53,300 -265,500 -404,500 -169,700 125,100 66,800 -263,400 -412,700 -180,100 125,800 21,400 -292,000 -389,300 -158,300 113,800 28,200 -305,700 -413,300 -150,300 109,700 35,500 -292,500 -405,500 -165,700 115,200 46,600 -292,200 -412,800 -147,200 91,000 14,100 -300,900 -418,700 -157,300 131,900 60,100 -292,800 -436,500 -190,600 116,900 61,200 -313,800 -477,400 -191,000 96,500 17,900 -294,600 -398,600 -192,500 76,900 10,500 -315,300 -432,900 -190,900 76,500 12,100 -311,900 -439,100 -185,400 110,200 38,600 -331,700 -457,300 -186,000 139,800 52,900 -304,700 -482,300 -194,800 116,600 9,100 -325,800 -432,300 -198,700 104,800 37,000 -321,900 -434,100 -175,700 91,800 13,200 -309,500 -419,600 -177,400 112,000 26,900 -331,300 -432,900 -167,300 122,600 16,900 -331,200 -441,400 -198,000 47,300 53,100 -276,100 -443,200 -186,700 87,500 1,400 -323,500 -436,400 -155,100 121,900 24,500 -313,000 -437,300 -187,600 96,800 26,900 -292,000 -408,400 -171,400 83,600 -9,200 -293,700 -418,100 -207,000 78,300 23,700 -297,900 -441,700 -203,000 81,600 10,400 -315,900 -448,300 -190,800 94,600 19,600 -342,800 -461,100 -154,000 105,100 1,700 -335,700 -451,700 -152,800 102,100 -9,700 -295,300 -432,300 -178,600 117,200 19,900 -316,200 -453,100 -197,900 99,600 10,800 -306,800 -435,900 -186,600 88,200 6,400 -289,800 -433,400 -197,200 113,400 36,900 -290,900 -442,000 -181,600 115,800 33,100 -299,800 -426,400 -189,200 79,000 26,900 -299,400 -435,800 -171,900 95,600 37,100 -275,200 -415,300 -177,400 111,300 42,000 -310,600 -455,400 -163,800 144,100 36,700 -313,500 -435,100 -180,800 99,600 37,500 -271,600 -428,800 -213,400 81,500 34,400 -278,800 -465,300 -185,400 83,000 2,300 -318,500 -432,500 -156,700 144,600 30,900 -333,000 -464,000 -164,100 108,900 39,500 -270,300 -412,700 -188,400 80,300 43,700 -299,800 -414,900 -183,900 38,400 -72,800 -365,400 -449,000 -179,800 105,900 -1,500 -325,900 -444,400 -219,600 5,900 34,800 -277,100 -449,200 -213,600 50,300 -6,200 -323,000 -443,300 -173,500 67,700 -5,500 -298,800 -437,900 -216,800 80,900 -36,500 -389,800 -454,400 -218,400 33,800 -28,900 -377,700 -500,000 -273,500 46,800 -36,500 -368,900 -497,100 -244,900 50,300 -41,600 -380,300 -483,600 -263,000 11,800 -57,200 -380,300 -500,900 -241,000 54,100 -3,400 -348,400 -495,000 -304,400 -13,600 -21,400 -275,800 -431,400 -241,900 48,800 -45,300 -373,100 -482,400 -189,100 77,600 -2,100 -384,800 -469,500 -138,700 119,400 26,900 -320,900 -415,400 -103,500 134,700 29,800 -322,400 -418,500 -147,200 105,500 98,700 -235,900 -356,800 -122,200 131,500 48,500 -260,600 -355,400 -90,000 172,300 82,700 -182,200 -285,100 -85,400 181,900 108,300 -253,300 -357,500 -73,000 223,800 162,600 -201,900 -332,700 -51,700 280,600 125,600 -200,400 -277,300 -26,700 253,400 157,700 -165,500 -341,500 -57,700 266,800 188,600 -81,800 -209,600 -18,000 249,500 188,400 -153,200 -226,700 4,200 245,000 178,700 -136,900 -200,900 22,200 293,500 216,100 -115,700 -234,700 1,700 344,200 254,400 -138,000 -282,000 12,900 313,000 157,200 -104,000 -245,200 12,600 299,000 169,100 -156,900 -229,400 58,500 314,000 206,200 -194,200 -296,900 -28,400 352,600 225,900 -180,800 -285,000 -5,800 270,300 187,600 -169,500 -376,100 -72,100 253,500 147,300 -240,500 -366,900 -120,600 205,700 84,900 -209,500 -325,300 -111,200 158,000 77,900 -255,600 -373,500 -134,600 139,200 71,600 -291,300 -397,100 -121,400 152,500 98,800 -241,800 -417,000 -137,500 92,700 -24,900 -330,200 -416,300 -167,700 148,700 33,100 -316,000 -425,400 -206,000 36,700 -10,700 -302,400 -432,200 -150,000 115,000 -26,800 -401,200 -428,400 -191,300 80,000 -40,100 -403,500 -413,500 -159,700 85,600 -6,200 -350,300 -451,800 -169,800 87,800 -44,900 -345,800 -409,500 -186,300 97,800 -39,200 -389,300 -468,500 -148,200 99,100 13,800 -324,600 -475,100 -259,200 38,000 -0,200 -300,400 -377,300 -141,700 88,500 -15,000 -356,600 -423,200 -153,200 126,800 76,200 -254,700 -447,500 -135,800 145,800 49,600 -281,100 -381,100 -62,400 188,500 53,900 -251,800 -370,500 -71,400 164,500 52,900 -269,400 -345,000 -40,900 187,500 77,300 -269,700 -331,200 -52,700 218,600 127,100 -188,200 -317,300 -115,500 224,200 157,400 -189,100 -287,100 -25,000 205,900 98,100 -216,600 -269,200 -6,600 231,200 152,300 -187,600 -326,500 -10,500 247,700 146,500 -199,200 -288,800 -21,300 249,700 147,000 -203,000 -288,200 -61,700 218,400 94,200 -174,200 -274,800 -23,800 234,400 118,600 -201,500 -297,500 -84,800 201,600 126,200 -224,700 -346,100 -84,500 192,300 122,400 -191,400 -300,800 -109,000 157,700 97,500 -238,500 -383,900 -75,600 203,200 102,900 -255,400 -393,900 -96,500 153,100 100,500 -275,400 -399,400 -107,300 127,900 75,900 -255,700 -405,200 -154,300 90,500 53,000 -323,000 -395,200 -146,600 85,300 -50,500 -320,200 -424,900 -130,100 149,600 30,900 -321,000 -442,600 -152,700 107,900 -36,300 -326,200 -447,400 -214,300 104,100 -31,200 -343,600 -454,000 -225,800 9,500 -6,600 -312,500 -390,900 -164,300 19,800 -126,500 -356,600 -459,200 -176,300 103,500 -12,900 -363,700 -433,700 -162,600 24,200 -16,700 -344,800 -487,400 -227,900 94,800 -0,100 -357,500 -464,700 -154,600 111,500 -24,800 -366,900 -481,600 -205,100 98,400 37,200 -323,600 -420,900 -143,500 85,700 0,900 -328,200 -382,100 -121,000 94,500 -23,600 -313,400 -411,900 -158,400 128,100 21,200 -294,600 -384,500 -87,100 165,300 79,700 -252,900 -406,400 -118,700 171,700 45,700 -280,200 -353,400 -62,600 204,500 87,000 -234,600 -323,700 -118,300 182,300 115,100 -234,600 -331,300 -56,800 205,100 105,300 -221,800 -289,000 -49,800 220,100 113,300 -236,100 -317,300 -16,300 247,000 93,300 -223,200 -299,800 -46,000 199,300 107,500 -217,800 -320,200 -53,300 225,500 132,400 -202,700 -288,400 2,300 231,200 75,000 -219,800 -324,200 -69,400 219,500 142,000 -212,300 -325,100 -43,300 224,400 106,100 -233,000 -342,500 -59,400 210,800 95,400 -224,300 -324,000 -51,400 215,500 123,500 -168,500 -261,200 -70,800 172,800 87,300 -248,600 -347,200 -71,600 209,500 106,300 -246,500 -347,100 -57,700 199,500 76,500 -250,800 -361,900 -89,500 188,900 91,600 -240,100 -371,600 -126,900 156,900 62,900 -255,100 -346,600 -108,200 147,100 44,700 -299,600 -375,400 -105,100 158,200 48,600 -291,900 -399,400 -129,700 131,300 24,300 -265,300 -345,700 -128,100 99,500 20,400 -334,800 -402,800 -112,900 145,100 42,700 -302,500 -417,300 -166,000 130,700 39,100 -292,100 -394,300 -152,200 144,700 38,300 -326,500 -437,700 -182,300 109,200 19,800 -358,100 -472,400 -187,200 105,800 34,200 -343,900 -476,000 -209,000 84,200 -9,700 -370,500 -457,700 -154,100 121,600 -14,600 -359,400 -423,500 -153,400 96,300 -39,400 -361,100 -441,900 -172,000 114,700 10,800 -317,600 -401,400 -175,200 88,000 13,700 -334,300 -416,400 -132,500 145,800 58,100 -286,800 -433,600 -185,600 81,900 13,500 -269,400 -392,800 -136,600 142,800 28,800 -305,200 -379,400 -131,200 147,900 64,800 -264,000 -351,300 -90,500 152,700 77,900 -239,700 -344,400 -101,100 188,300 93,200 -207,200 -292,600 -37,300 197,600 63,400 -241,100 -343,300 -58,700 251,000 131,600 -173,200 -293,300 -36,800 235,100 97,700 -239,300 -356,900 -53,000 237,700 160,200 -194,400 -331,400 -46,700 223,500 104,300 -213,300 -314,500 -65,200 222,300 129,600 -220,900 -296,000 -11,700 183,300 107,400 -228,000 -334,200 -47,600 235,400 117,300 -202,500 -314,300 -35,300 214,800 78,700 -243,700 -305,400 -61,000 222,600 90,300 -254,800 -351,000 -71,900 162,100 22,600 -306,800 -319,200 -41,700 170,500 40,100 -302,900 -389,900 -99,700 186,400 42,600 -288,900 -400,700 -160,100 115,000 32,700 -290,800 -385,500 -130,700 118,300 -13,900 -299,200 -361,700 -100,500 96,000 -52,800 -343,300 -405,400 -110,900 133,100 40,200 -383,000 -469,300 -148,100 88,000 -39,900 -376,800 -410,300 -139,700 73,700 -48,300 -356,900 -415,000 -149,000 72,900 -17,300 -337,600 -432,600 -180,500 116,200 29,000 -308,200 -407,700 -148,700 102,700 -33,900 -294,700 -372,700 -125,100 151,700 15,400 -326,700 -396,200 -126,200 117,700 35,200 -278,000 -401,300 -132,300 138,100 32,700 -282,800 -382,100 -125,200 126,700 41,000 -281,600 -383,200 -113,900 156,900 69,800 -247,500 -363,600 -89,300 194,000 73,800 -260,600 -321,300 -77,100 178,400 75,900 -241,600 -329,200 -50,400 217,000 99,100 -251,000 -318,800 -40,700 185,100 86,900 -246,700 -368,500 -92,500 210,800 144,100 -205,600 -321,100 -71,500 176,500 104,900 -221,400 -338,500 -82,600 165,200 77,800 -225,200 -322,100 -54,500 174,900 79,000 -240,000 -328,800 -69,500 173,900 56,200 -250,800 -338,900 -89,300 151,200 57,700 -268,900 -354,200 -73,500 166,900 54,300 -288,600 -375,000 -115,700 135,300 45,300 -296,600 -400,100 -119,500 146,300 51,900 -244,600 -394,200 -146,300 116,200 13,200 -310,000 -377,000 -116,700 117,000 12,000 -303,800 -376,900 -115,700 112,300 -16,500 -323,800 -397,800 -143,200 112,400 11,900 -344,600 -436,900 -157,700 114,600 22,000 -302,000 -417,300 -154,100 104,500 -27,600 -347,600 -392,200 -147,000 71,800 -26,400 -333,800 -434,400 -168,500 128,000 -11,600 -364,600 -446,900 -164,700 86,500 -16,500 -327,600 -441,300 -164,400 99,200 -1,300 -293,300 -373,000 -117,200 70,100 -40,900 -353,400 -429,700 -186,000 58,600 -13,000 -325,600 -426,600 -176,200 86,900 -33,200 -347,000 -419,000 -145,600 98,400 -8,500 -335,800 -408,500 -162,200 47,500 -12,500 -324,100 -411,500 -112,300 132,700 -14,700 -351,500 -439,500 -155,000 94,500 -17,000 -331,400 -390,600 -126,300 120,400 0,900 -304,100 -406,400 -134,900 138,700 36,700 -327,500 -408,000 -100,100 154,900 10,100 -303,100 -399,700 -114,500 147,700 34,200 -300,300 -374,700 -107,700 138,100 62,200 -272,400 -390,900 -97,600 169,700 29,600 -302,600 -354,600 -73,400 129,700 24,300 -284,800 -380,800 -114,100 169,100 65,900 -282,600 -385,300 -92,400 144,000 43,000 -264,800 -358,200 -136,800 125,700 61,300 -287,400 -383,000 -90,000 176,500 53,400 -296,100 -366,600 -114,100 124,800 19,600 -284,600 -381,700 -104,200 115,500 19,800 -261,500 -357,400 -121,100 153,600 12,300 -358,800 -424,700 -136,100 119,900 17,200 -307,600 -384,000 -117,900 125,000 4,600 -333,900 -421,100 -152,100 108,000 9,200 -309,500 -368,700 -143,800 91,700 -10,000 -333,200 -404,900 -127,600 105,000 -47,200 -366,100 -422,800 -134,600 71,600 -42,000 -278,600 -426,300 -185,400 110,200 6,600 -321,000 -410,800 -136,300 102,900 -18,700 -319,200 -420,200 -167,400 97,800 -14,800 -335,700 -419,600 -139,100 105,400 -10,100 -344,600 -432,600 -183,000 34,500 -42,200 -313,700 -380,600 -195,300 94,200 12,100 -298,100 -414,700 -143,900 98,000 -27,900 -344,800 -406,100 -127,000 104,400 -32,700 -374,300 -441,300 -96,400 138,300 0,400 -312,800 -400,500 -142,800 162,700 55,700 -291,400 -372,400 -129,200 96,500 0,900 -296,400 -396,100 -151,900 119,500 -34,200 -355,300 -392,000 -153,200 82,300 -13,100 -335,100 -419,300 -151,800 107,200 -17,600 -345,300 -385,200 -108,300 129,700 -34,700 -349,800 -453,800 -139,000 124,800 -33,100 -346,500 -385,800 -179,300 113,900 -18,500 -338,400 -453,500 -173,900 97,200 -5,800 -338,100 -404,600 -182,000 52,200 -16,400 -332,900 -419,300 -150,700 65,700 -41,600 -369,700 -439,900 -143,300 148,000 10,100 -354,500 -426,800 -181,900 88,300 -0,900 -273,800 -394,900 -188,700 112,500 30,200 -311,700 -394,000 -93,200 189,000 -14,000 -385,600 -408,100 -93,600 167,600 42,200 -292,900 -373,300 -92,300 188,600 44,600 -278,300 -309,800 -4,300 219,700 79,500 -228,400 -304,800 -42,800 226,100 117,900 -195,800 -286,600 -8,100 271,200 157,900 -185,600 -300,800 -26,200 244,600 216,700 -151,000 -283,000 10,700 249,300 155,300 -155,300 -259,000 -17,200 296,700 178,800 -198,900 -281,600 75,600 332,400 256,400 -108,500 -257,200 -25,400 217,700 172,200 -151,200 -218,500 55,600 345,800 244,600 -161,100 -240,500 30,000 243,400 201,100 -98,600 -205,900 61,100 308,100 184,800 -112,300 -202,600 40,000 263,700 126,600 -169,100 -189,100 105,800 347,200 177,300 -162,700 -277,200 59,500 357,000 159,200 -113,300 -180,100 64,900 288,800 175,700 -221,800 -214,400 95,500 278,000 156,500 -157,800 -235,500 53,400 309,800 159,800 -149,900 -228,500 45,300 292,100 218,400 -160,600 -255,100 47,100 281,700 120,500 -221,200 -262,400 -5,800 270,300 184,000 -199,300 -275,200 -17,000 278,300 137,400 -214,200 -291,500 12,100 263,500 122,800 -248,800 -347,700 -16,100 186,600 112,800 -195,100 -307,500 -32,800 220,200 101,100 -252,000 -334,000 -42,500 232,500 93,000 -296,700 -369,700 -54,400 213,000 76,800 -265,600 -331,800 -95,400 199,300 67,900 -270,200 -334,600 -49,600 172,400 49,100 -287,800 -387,100 -30,600 251,400 41,000 -301,000 -364,700 -106,500 153,900 80,500 -277,400 -412,100 -84,900 265,200 31,400 -295,000 -331,900 -63,700 178,800 80,600 -272,600 -413,900 -172,400 202,800 153,300 -240,700 -367,600 -79,200 175,700 78,600 -238,400 -346,300 -62,800 197,900 -17,700 -257,600 -280,000 -24,000 199,700 68,800 -217,000 -328,200 -45,000 182,200 92,700 -202,400 -324,600 -38,400 224,500 111,700 -225,700 -341,900 -88,600 287,400 164,100 -193,500 -320,400 -25,500 251,600 124,300 -218,500 -286,600 23,800 256,300 49,400 -256,200 -268,400 -8,600 256,000 143,700 -197,600 -264,500 -27,800 254,600 94,000 -183,400 -215,900 32,900 234,100 129,400 -172,600 -349,700 -7,500 293,900 153,400 -215,100 -268,300 7,800 258,400 167,600 -175,000 -238,700 -57,100 224,300 124,000 -209,400 -260,300 26,400 301,100 137,500 -199,900 -279,800 -47,300 180,500 165,200 -186,900 -255,400 4,600 235,800 135,000 -186,700 -351,500 -60,600 222,400 98,300 -219,300 -300,900 -28,100 199,900 87,800 -251,100 -317,100 -46,200 218,700 90,400 -222,600 -360,000 -13,100 241,300 106,600 -269,400 -378,000 -81,000 184,800 74,800 -245,800 -331,400 -39,600 208,600 41,800 -275,400 -364,900 -56,000 196,800 77,600 -264,100 -359,400 -69,400 198,100 68,800 -245,400 -333,500 -71,400 164,600 41,500 -296,200 -354,800 -77,600 191,500 76,500 -277,900 -375,300 -80,700 166,700 47,800 -277,200 -361,000 -75,800 185,600 66,300 -271,300 -339,000 -63,600 154,300 30,100 -286,200 -351,400 -71,200 173,200 55,200 -258,000 -331,800 -70,700 229,100 87,200 -309,300 -374,700 -79,600 189,100 65,900 -259,800 -326,600 -24,400 205,100 49,200 -257,600 -346,300 -79,600 190,300 78,000 -252,300 -325,600 -27,100 218,100 90,500 -237,500 -320,500 -43,500 215,900 99,600 -215,700 -282,300 -23,500 189,100 70,300 -241,200 -318,900 -23,800 242,200 129,900 -209,800 -302,800 -22,200 245,800 121,200 -204,200 -260,500 20,500 259,200 125,400 -175,100 -242,900 -11,700 252,800 146,100 -154,600 -255,600 -42,900 226,100 94,500 -231,500 -297,000 3,300 267,400 139,500 -215,200 -287,500 6,200 261,000 141,700 -193,500 -275,000 10,400 268,700 136,400 -188,400 -243,600 67,500 326,000 189,500 -208,900 -287,200 -0,600 224,500 112,500 -202,500 -282,300 6,600 270,100 125,500 -231,600 -313,500 -24,200 225,500 93,500 -236,100 -305,600 -22,300 218,500 92,200 -242,200 -321,400 -34,600 265,100 112,400 -281,200 -362,500 -95,400 165,800 71,400 -269,500 -372,500 -72,800 189,300 41,000 -265,300 -351,700 -102,900 166,900 34,800 -325,100 -372,100 -70,100 201,700 44,300 -317,500 -392,500 -99,700 162,000 -8,700 -323,000 -402,000 -113,200 152,100 -6,000 -344,500 -382,300 -117,100 128,800 24,800 -329,700 -399,300 -133,900 111,700 24,700 -285,400 -368,600 -121,500 122,100 17,600 -330,200 -396,600 -105,000 144,200 13,800 -312,600 -368,100 -64,700 137,800 -8,200 -293,500 -383,500 -100,600 160,100 49,500 -262,000 -363,900 -75,200 177,700 23,100 -300,000 -327,600 -31,400 191,100 52,800 -252,300 -349,500 -64,000 187,700 72,400 -230,700 -295,600 -9,500 221,100 73,400 -274,000 -307,200 21,300 270,900 94,500 -230,100 -294,400 -13,300 221,300 126,900 -193,900 -274,600 -3,600 253,100 152,200 -152,800 -222,700 60,700 313,100 146,100 -179,300 -240,900 57,000 296,800 153,300 -166,300 -225,300 55,400 282,200 179,400 -167,700 -263,300 43,300 282,600 137,200 -200,600 -231,700 38,000 288,800 118,600 -145,200 -194,400 58,200 284,200 148,900 -144,900 -218,400 53,900 317,500 141,000 -132,000 -217,800 65,900 293,500 165,800 -172,600 -286,800 23,300 362,500 244,700 -120,500 -255,500 10,500 279,500 151,000 -157,800 -239,100 24,000 267,300 123,600 -180,300 -217,000 36,400 231,000 134,800 -198,000 -278,900 8,400 252,800 108,500 -184,800 -260,700 6,300 250,900 102,300 -244,900 -314,000 -19,500 236,900 90,200 -252,100 -286,500 5,500 196,700 39,700 -232,400 -301,400 -63,800 166,600 88,700 -212,800 -314,100 -36,000 175,700 26,200 -234,000 -246,000 -42,000 156,300 28,300 -289,100 -343,100 -69,600 182,600 57,600 -257,900 -343,600 -75,200 167,500 46,800 -254,100 -301,600 -104,000 140,300 73,400 -235,100 -317,300 -39,000 189,800 33,700 -305,700 -335,000 -31,500 196,700 36,700 -280,200 -323,900 -46,900 190,200 54,600 -260,000 -304,500 -21,000 206,200 53,700 -243,900 -310,600 -30,400 178,100 34,500 -244,000 -270,400 17,300 246,700 79,500 -256,900 -312,300 -14,000 234,400 111,200 -234,000 -307,800 -9,400 237,500 93,100 -196,600 -262,700 -16,200 210,100 95,600 -220,000 -287,200 2,500 249,300 101,100 -195,600 -279,500 -17,400 229,700 46,300 -260,600 -262,800 16,900 246,400 100,500 -235,700 -274,600 15,000 238,100 80,300 -227,500 -272,100 26,100 267,900 108,700 -257,400 -316,600 -5,500 240,700 77,200 -240,300 -287,600 -0,900 222,900 74,700 -258,500 -313,800 -36,700 185,200 44,400 -258,500 -288,600 -16,400 203,300 60,100 -252,000 -308,500 -32,700 191,200 59,400 -258,800 -312,300 5,100 213,900 55,200 -232,700 -338,700 -73,700 175,200 -0,500 -289,200 -346,600 -38,900 180,500 44,600 -271,300 -333,200 -69,400 162,200 18,600 -288,600 -339,600 -49,500 176,200 47,800 -269,600 -373,400 -65,500 228,700 68,200 -308,800 -381,300 -83,500 143,400 1,200 -297,600 -344,000 -62,100 151,000 -3,700 -301,100 -345,300 -60,200 153,800 17,300 -311,000 -385,800 -91,400 160,500 17,100 -313,100 -355,000 -65,500 137,500 -0,200 -309,500 -379,300 -87,600 154,000 -12,200 -316,100 -369,300 -105,500 138,100 -1,900 -306,200 -349,100 -67,100 143,300 -2,400 -301,400 -367,500 -90,100 133,400 -20,400 -328,900 -358,800 -29,400 179,800 -4,900 -317,400 -349,700 -64,000 164,100 -3,800 -335,700 -379,900 -69,400 155,400 14,700 -274,500 -339,500 -74,600 163,900 -3,700 -313,700 -337,200 -45,300 163,500 16,200 -304,500 -360,400 -31,100 206,700 39,800 -280,100 -306,100 -38,200 188,200 46,900 -270,600 -345,300 -69,900 165,500 10,900 -327,600 -342,300 -29,500 180,500 35,700 -294,800 -333,300 -23,000 175,600 40,800 -270,800 -309,800 -37,600 170,000 11,100 -297,000 -346,100 -25,200 186,400 41,600 -260,000 -325,100 -53,200 195,700 52,600 -267,800 -332,900 -53,000 180,800 30,400 -280,700 -322,000 -24,700 195,700 50,800 -280,000 -286,900 19,000 216,700 40,500 -293,300 -312,800 -27,400 150,300 -6,300 -309,100 -341,700 -20,600 174,000 16,000 -293,800 -327,200 -39,800 185,300 34,000 -308,800 -359,000 -47,700 168,600 18,200 -300,700 -313,700 -32,100 162,900 -19,900 -300,200 -332,500 -30,300 174,700 27,400 -285,700 -362,300 -77,400 163,300 13,100 -294,200 -370,200 -54,800 182,600 5,300 -320,600 -371,700 -68,000 174,000 7,800 -303,500 -339,100 -52,200 154,800 -11,700 -308,700 -315,300 -46,000 147,300 4,400 -309,700 -349,800 -53,800 155,300 4,800 -290,100 -336,200 -32,100 206,800 -8,100 -338,500 -363,800 -73,800 170,400 10,600 -309,300 -333,300 -42,000 172,700 -11,200 -327,200 -346,300 -75,800 176,400 -9,400 -338,400 -362,300 -40,300 196,600 32,700 -298,400 -335,800 -64,700 161,700 6,000 -309,100 -343,600 -42,200 183,200 7,600 -306,000 -343,500 -60,100 190,600 47,500 -295,000 -313,300 -21,300 151,700 -27,400 -279,400 -251,700 -16,500 148,400 -8,900 -291,000 -311,500 -10,000 191,800 10,400 -306,500 -326,100 -27,100 203,000 29,000 -296,900 -307,600 -28,100 227,800 48,800 -320,300 -318,000 -2,700 181,900 1,600 -305,100 -279,200 -4,800 183,800 21,400 -294,500 -304,000 -4,100 207,400 22,600 -306,000 -314,800 5,600 204,900 22,000 -284,600 -303,700 2,300 216,500 41,000 -279,600 -292,100 27,300 229,600 61,000 -285,500 -327,800 -13,300 208,200 33,700 -286,800 -298,200 -15,900 205,100 66,500 -271,600 -311,500 0,700 204,200 30,200 -277,300 -283,500 5,700 232,400 84,000 -278,200 -324,100 -22,300 170,000 0,600 -375,100 -353,500 60,900 219,300 30,000 -271,800 -310,100 -31,200 174,700 29,600 -291,900 -348,600 -38,300 179,600 3,400 -305,700 -318,200 -6,100 201,100 27,800 -302,300 -305,900 -28,200 74,000 -173,600 -396,200 -255,800 -6,100 196,300 -38,400 -386,000 -370,600 10,300 249,500 26,300 -293,600 -333,300 -5,300 175,300 -2,800 -292,100 -317,000 -45,800 160,300 -16,800 -312,600 -310,500 -33,800 173,700 -4,500 -335,500 -353,300 -64,400 101,600 -1,600 -207,600 -300,000 -35,300 146,200 -11,900 -283,700 -314,000 -17,100 175,800 3,400 -297,500 -336,500 -24,300 154,800 -32,200 -335,200 -319,200 -25,700 126,500 -42,500 -366,600 -395,700 -157,600 82,400 -54,000 -334,000 -382,100 -87,300 103,200 -123,700 -413,800 -365,900 -51,600 108,900 -31,600 -362,700 -425,800 -104,600 97,100 -98,200 -405,300 -399,200 -59,000 166,900 -22,600 -361,300 -362,900 -33,600 162,300 -9,400 -333,400 -372,800 -46,900 147,600 21,200 -252,900 -304,200 25,200 215,800 27,900 -251,700 -239,400 45,600 255,800 63,700 -201,200 -175,300 90,300 259,600 85,500 -200,900 -181,700 116,300 309,000 111,900 -246,300 -180,100 128,000 289,700 128,300 -164,300 -154,300 149,200 340,400 120,700 -176,700 -187,600 108,500 314,600 152,000 -149,900 -175,500 115,200 309,300 180,600 -138,300 -145,500 149,000 331,700 151,400 -182,400 -215,300 108,700 422,600 211,300 -181,400 -170,000 155,700 354,500 164,400 -125,600 -117,700 136,600 319,300 145,300 -159,700 -134,700 202,800 406,500 166,300 -171,300 -168,200 180,900 384,200 177,100 -155,100 -188,900 229,300 404,400 151,300 -145,200 -122,800 167,000 369,800 210,900 -113,200 -141,100 177,300 340,200 126,700 -83,200 -122,600 197,700 388,600 181,300 -208,200 -200,800 197,700 401,700 184,500 -136,700 -146,100 134,600 339,800 120,600 -214,600 -171,600 143,000 310,000 95,600 -230,800 -213,900 140,000 304,100 113,200 -197,700 -216,800 81,100 244,600 69,100 -175,400 -185,400 74,700 253,000 38,800 -261,000 -267,400 99,800 288,800 48,900 -250,100 -232,200 68,900 268,300 24,400 -318,200 -230,100 78,800 281,600 70,300 -251,400 -249,400 73,000 225,200 20,800 -301,800 -254,600 49,400 253,200 60,800 -236,600 -264,200 35,100 216,200 42,100 -263,200 -249,100 55,800 248,400 33,900 -270,200 -294,800 9,100 255,200 47,400 -296,700 -280,700 57,500 229,800 19,500 -293,800 -389,200 68,000 355,600 35,300 -281,200 -263,600 58,100 252,600 61,900 -248,800 -247,300 89,400 261,200 83,000 -241,300 -257,100 90,200 240,000 83,300 -197,300 -203,500 106,200 277,400 73,200 -198,000 -204,700 115,900 258,900 128,100 -120,100 -179,000 97,700 295,200 111,100 -188,800 -170,700 133,300 293,400 60,900 -205,900 -178,500 139,500 297,500 110,400 -210,500 -182,200 112,800 323,600 137,100 -177,000 -162,400 149,800 359,400 127,900 -185,600 -201,300 117,200 301,600 138,000 -169,400 -133,700 169,800 296,300 75,000 -238,900 -226,600 130,900 321,800 107,300 -177,900 -202,100 122,500 277,600 75,700 -212,000 -214,800 135,300 321,500 81,300 -238,800 -237,200 102,200 288,000 91,500 -203,700 -220,900 89,500 286,700 73,100 -255,900 -236,700 73,900 224,000 41,400 -256,300 -235,700 82,200 244,200 49,900 -257,300 -241,800 83,000 269,000 6,600 -310,600 -235,900 73,900 253,000 60,800 -227,300 -224,900 14,800 224,800 23,900 -321,700 -289,500 43,900 227,800 37,800 -295,100 -297,000 11,400 180,500 -27,600 -334,200 -258,400 57,900 212,600 -4,900 -305,200 -286,300 15,500 185,800 -25,300 -301,800 -281,800 17,400 188,800 -17,400 -314,200 -311,500 62,500 250,900 10,700 -354,900 -341,500 -4,300 178,700 -34,900 -321,800 -270,900 53,800 193,700 -37,000 -312,800 -283,500 28,600 195,700 -13,900 -316,900 -273,100 38,800 199,600 -5,600 -283,800 -250,200 82,300 236,500 12,900 -289,100 -253,800 59,000 241,000 39,300 -249,500 -218,800 89,700 240,200 30,900 -283,200 -228,200 103,800 271,900 53,000 -261,300 -241,100 97,400 269,000 58,300 -242,600 -213,800 115,800 287,000 84,500 -225,600 -189,500 134,000 294,300 73,600 -217,300 -184,300 133,100 303,800 86,900 -202,800 -158,100 136,200 286,500 98,700 -175,000 -156,200 150,400 322,200 99,500 -176,200 -108,000 175,900 310,500 45,700 -221,800 -163,400 157,500 325,800 120,800 -187,600 -180,900 119,300 287,600 90,400 -215,000 -178,200 151,800 307,500 87,600 -208,800 -174,300 145,400 306,600 115,300 -147,300 -117,000 118,100 234,800 55,300 -215,900 -198,200 104,400 282,100 56,000 -252,000 -240,600 84,400 256,500 39,200 -252,900 -221,900 101,300 263,700 -2,500 -318,800 -254,900 87,600 284,600 48,900 -319,200 -282,600 85,400 281,100 2,400 -352,200 -299,200 42,000 196,800 -31,100 -369,900 -329,000 85,400 215,100 -65,500 -348,100 -314,400 -12,100 144,900 -58,300 -318,800 -260,000 31,100 163,100 -68,800 -381,800 -320,600 26,600 202,300 -9,200 -348,000 -354,700 -34,500 147,700 -58,400 -402,500 -322,800 31,500 174,600 -46,900 -346,300 -333,400 17,100 188,400 -40,300 -338,900 -340,300 10,600 221,000 -10,900 -362,600 -295,400 63,700 182,800 -73,300 -340,600 -273,500 49,600 209,800 -32,600 -319,200 -283,800 78,800 241,600 -21,700 -284,900 -196,600 92,900 224,400 -8,600 -317,600 -241,400 137,700 298,600 68,500 -275,500 -222,000 123,200 305,200 77,900 -197,200 -161,500 154,100 289,900 96,500 -231,100 -191,100 118,300 262,100 61,100 -181,000 -151,800 163,300 292,400 59,300 -222,900 -168,900 156,800 306,100 79,600 -206,400 -184,600 172,800 357,900 97,300 -269,500 -258,800 138,600 300,500 35,000 -227,500 -155,800 135,200 261,700 56,600 -233,100 -202,000 115,100 263,700 52,800 -221,000 -171,300 132,000 291,500 53,100 -251,900 -178,700 169,600 320,600 43,500 -310,500 -251,600 147,800 307,800 70,800 -235,300 -223,900 86,600 266,900 55,000 -257,800 -190,800 151,500 286,800 27,300 -255,500 -192,200 108,800 229,400 6,000 -289,800 -237,300 78,100 208,500 5,100 -273,200 -250,400 39,900 175,300 -61,700 -349,400 -274,300 67,500 201,800 -26,000 -332,500 -289,300 30,100 163,600 -53,600 -343,200 -284,000 25,900 180,400 -49,600 -354,600 -296,900 19,500 149,000 -90,100 -358,000 -329,900 -29,100 100,600 -60,200 -352,900 -375,900 -22,200 142,000 -98,800 -392,800 -326,700 17,600 148,900 -79,500 -367,700 -316,700 21,400 166,000 -93,800 -367,700 -297,100 16,600 152,800 -101,100 -345,900 -276,100 44,800 217,400 -11,400 -341,900 -307,900 3,600 170,100 -56,700 -322,500 -249,300 61,500 192,400 -38,900 -326,200 -280,700 45,300 184,900 -44,600 -304,200 -241,900 78,500 225,300 -22,300 -309,400 -240,800 87,000 227,600 16,600 -289,700 -271,400 73,200 236,400 54,000 -272,200 -238,200 108,000 241,600 -16,800 -285,900 -211,300 109,900 230,400 0,900 -260,000 -200,000 113,700 257,200 28,100 -246,100 -180,900 118,900 239,700 -17,100 -278,800 -211,800 102,300 218,100 -4,900 -277,400 -199,300 128,500 241,900 -22,200 -277,700 -197,900 108,400 233,600 -4,800 -270,500 -213,200 88,800 225,000 -11,700 -285,800 -216,300 106,800 246,100 -17,300 -325,300 -256,200 81,900 202,400 -7,400 -265,900 -234,400 41,500 173,300 -39,300 -292,200 -232,100 65,500 172,200 -75,700 -332,600 -263,000 53,900 195,500 -48,400 -335,900 -249,300 71,500 171,800 -88,100 -333,300 -269,700 56,100 194,800 -67,900 -347,800 -283,800 82,700 205,600 -36,000 -330,300 -288,100 31,500 171,200 -40,400 -344,300 -293,600 35,500 156,900 -102,300 -372,900 -286,400 37,100 169,900 -44,400 -343,000 -293,500 6,700 137,900 -45,600 -332,800 -272,700 57,900 168,600 -94,900 -366,000 -271,500 44,800 158,400 -63,900 -334,900 -253,600 58,900 171,500 -50,100 -327,400 -315,600 -2,600 147,300 -73,100 -361,700 -271,400 38,600 175,200 -66,200 -367,500 -301,900 44,500 191,700 -66,600 -355,300 -258,700 62,200 192,900 -91,600 -369,300 -285,500 34,300 175,200 -47,000 -315,200 -264,100 39,700 170,500 -57,000 -302,600 -222,000 48,800 176,100 -71,800 -356,100 -247,700 107,700 205,200 -73,800 -343,000 -271,700 62,700 199,000 -44,700 -298,100 -208,900 74,300 170,200 -28,500 -276,000 -233,500 27,700 159,200 -44,400 -288,700 -247,100 51,500 202,000 -42,500 -322,700 -225,100 96,800 188,700 -49,000 -306,300 -240,000 53,200 209,200 -0,400 -309,500 -275,000 76,500 207,000 -34,400 -310,700 -241,000 97,100 209,100 -41,200 -336,800 -263,800 81,900 230,600 -35,700 -313,500 -239,600 83,200 214,000 -27,000 -294,800 -230,500 88,900 216,300 -13,600 -270,400 -192,500 99,700 200,400 -44,000 -319,800 -233,700 89,900 201,700 -63,900 -322,200 -251,200 75,100 214,000 -80,400 -345,500 -232,200 98,200 170,400 -68,100 -313,800 -262,100 37,300 169,100 -71,200 -354,500 -279,500 54,200 187,500 -68,600 -358,000 -278,400 71,200 165,900 -123,800 -407,600 -321,000 14,500 115,900 -153,700 -372,900 -299,400 21,600 124,000 -136,700 -388,800 -345,400 -31,300 124,300 -117,600 -368,500 -287,000 -0,600 86,300 -144,700 -410,600 -338,500 24,900 153,700 -106,900 -408,700 -323,500 -40,800 128,600 -64,000 -404,700 -313,200 37,700 153,100 -109,400 -392,100 -298,900 34,600 149,200 -106,100 -377,500 -274,800 69,000 143,400 -80,700 -345,000 -284,600 85,800 161,700 -96,300 -352,600 -265,200 76,900 192,300 -94,100 -334,500 -244,400 84,300 194,300 -68,200 -351,800 -250,600 93,300 191,900 -44,500 -308,100 -172,800 100,300 175,300 -56,200 -317,000 -227,300 88,900 253,300 1,500 -295,700 -219,000 96,900 179,900 -32,100 -272,200 -191,900 174,100 312,700 -1,100 -359,900 -190,500 124,700 240,300 48,700 -249,300 -132,000 168,900 252,000 -5,700 -295,800 -147,000 156,600 267,800 0,000 -247,400 -175,900 208,800 336,400 98,400 -247,600 -135,100 164,700 246,300 -0,800 -195,200 -84,400 188,200 299,700 92,800 -227,200 -72,000 215,800 351,100 64,800 -220,100 -130,800 197,500 353,400 74,100 -194,100 -54,500 217,700 339,100 111,200 -150,800 -94,600 229,700 404,500 168,300 -135,100 -98,800 268,500 381,600 99,100 -148,700 -58,500 231,300 373,800 129,000 -110,000 -70,000 238,300 353,000 104,500 -178,700 -26,800 372,200 409,600 96,400 -209,100 -117,500 217,100 402,400 91,800 -107,300 -46,700 249,800 340,100 60,300 -152,200 -26,600 264,400 383,400 48,800 -280,800 -40,500 261,600 358,200 13,700 -289,200 -174,500 202,600 286,300 118,400 -207,600 -159,500 203,200 274,900 53,700 -185,000 -103,800 161,000 232,000 20,900 -234,700 -120,600 159,600 261,200 -9,600 -284,100 -171,500 183,100 315,800 -6,100 -299,600 -224,300 88,700 323,100 10,400 -279,900 -215,000 89,700 158,700 -47,400 -278,900 -215,500 143,000 224,300 -52,700 -319,800 -259,700 10,400 294,100 -11,900 -287,600 -197,400 126,200 231,800 -37,500 -330,100 -171,200 195,200 211,800 -80,700 -338,800 -244,200 58,800 227,600 -5,200 -314,600 -204,300 125,200 217,300 -44,400 -303,000 -213,400 108,600 230,300 -35,100 -290,300 -176,600 153,300 235,600 -55,100 -338,300 -217,600 126,400 250,300 6,700 -261,700 -199,300 78,300 233,300 -7,700 -222,600 -139,000 154,900 212,300 -22,400 -252,700 -128,200 187,200 335,600 39,200 -292,900 -162,500 131,800 266,900 33,700 -249,700 -112,600 169,900 228,100 12,400 -174,200 -94,700 202,600 324,900 29,500 -231,800 -102,300 159,000 245,500 135,100 -200,200 -129,300 192,100 303,400 44,900 -240,900 -89,900 255,100 328,200 46,200 -221,700 -55,400 231,500 301,400 47,600 -203,900 -81,000 219,200 275,900 51,100 -188,800 -93,100 240,700 347,800 59,000 -240,600 -141,800 231,000 324,700 70,500 -218,500 -110,500 240,700 291,800 -24,600 -227,900 -77,800 254,900 320,600 10,400 -246,300 -121,700 213,000 261,500 -38,900 -234,600 -124,400 199,200 288,500 17,900 -237,100 -163,000 171,300 247,000 -7,300 -252,700 -135,200 180,000 270,600 -14,900 -276,700 -161,600 169,000 245,800 -14,200 -285,900 -179,200 159,400 249,700 -34,500 -289,000 -173,000 149,700 256,900 -14,700 -275,000 -161,300 150,200 220,600 -56,400 -291,300 -162,100 145,500 185,100 -89,000 -307,600 -177,700 93,200 183,700 -57,400 -316,300 -217,000 124,600 197,400 -80,500 -331,200 -214,200 127,300 214,400 -54,300 -322,200 -207,800 135,700 210,700 -67,700 -295,400 -184,500 134,600 231,200 -12,500 -270,700 -182,100 158,300 216,800 -78,900 -309,000 -185,000 158,000 222,000 -66,700 -316,500 -199,300 147,500 230,600 -42,500 -284,900 -166,400 157,900 229,400 -39,000 -293,800 -161,900 166,700 243,600 -10,000 -241,800 -147,100 161,200 231,000 -33,500 -254,500 -106,200 240,900 288,300 -58,000 -310,900 -179,000 144,900 259,900 1,400 -253,900 -136,900 166,800 247,700 -18,100 -267,800 -165,100 156,300 248,500 -16,900 -258,600 -141,100 176,100 254,100 -7,300 -254,600 -139,100 187,700 279,800 2,700 -254,700 -128,200 229,400 297,600 -31,900 -282,500 -142,200 189,100 228,900 -27,100 -271,500 -158,400 162,800 237,900 -8,900 -244,900 -141,800 158,000 239,000 -31,500 -267,700 -150,500 160,700 230,900 -27,200 -242,700 -92,900 189,600 209,200 -55,100 -297,700 -177,500 157,400 232,200 -31,900 -266,000 -164,800 120,900 194,000 -65,500 -292,400 -176,600 130,700 191,300 -85,500 -337,900 -213,800 100,300 194,800 -69,900 -313,400 -198,700 105,700 156,400 -143,300 -380,900 -225,600 116,600 175,700 -81,200 -354,000 -240,800 77,600 161,100 -127,700 -402,800 -275,900 54,500 123,700 -150,100 -382,700 -250,400 75,400 137,200 -176,300 -420,000 -275,200 34,200 97,400 -141,600 -369,100 -272,900 49,800 135,600 -140,500 -383,600 -255,400 64,900 151,200 -132,300 -347,200 -235,600 55,700 135,800 -156,300 -344,800 -215,700 29,700 120,000 -136,100 -362,400 -228,500 76,600 144,800 -125,700 -363,700 -223,200 88,000 150,400 -127,400 -369,200 -221,500 107,800 165,700 -114,400 -293,400 -171,600 87,400 168,500 -102,900 -322,100 -198,400 113,900 214,500 -66,500 -304,600 -152,400 172,000 211,200 -111,800 -348,500 -237,200 98,700 184,800 -82,200 -318,000 -169,800 138,200 207,300 -99,200 -334,100 -186,800 128,600 210,000 -62,600 -288,700 -169,900 151,100 222,500 -84,400 -336,600 -176,300 151,000 209,700 -50,100 -274,100 -137,000 163,400 169,500 -97,000 -339,100 -159,100 139,300 202,700 -84,000 -301,200 -148,600 193,100 242,500 -82,600 -292,500 -154,200 175,900 234,400 -47,700 -282,100 -130,600 167,500 174,400 -94,600 -325,900 -90,100 210,500 213,700 -75,600 -329,600 -176,600 149,700 200,300 -120,600 -317,800 -177,700 137,300 196,000 -85,600 -308,200 -184,800 120,700 180,200 -103,400 -324,200 -196,000 91,000 155,400 -129,000 -328,200 -179,900 100,400 141,400 -108,900 -358,100 -224,000 59,300 150,400 -123,900 -370,800 -259,100 69,300 139,600 -161,200 -378,000 -223,300 74,100 136,300 -163,400 -429,200 -268,600 92,900 147,900 -116,900 -366,600 -267,900 32,000 107,200 -163,400 -372,400 -247,500 78,000 136,000 -126,500 -346,700 -219,100 91,900 107,000 -204,500 -340,500 -215,500 53,800 125,500 -137,400 -393,100 -322,900 76,000 192,700 -144,000 -377,200 -223,700 76,700 125,300 -140,000 -361,800 -250,700 75,900 141,300 -141,600 -352,700 -193,300 120,200 132,000 -162,900 -415,000 -244,800 110,100 173,800 -112,700 -358,900 -256,400 36,500 134,100 -102,900 -338,200 -204,600 132,800 187,100 -139,000 -384,500 -256,100 97,900 169,500 -108,900 -344,800 -210,000 99,400 134,900 -117,800 -326,300 -149,300 132,300 135,200 -158,600 -348,800 -212,200 89,900 79,100 -130,300 -317,200 -192,300 113,100 154,700 -103,400 -318,500 -230,500 81,900 150,900 -140,900 -344,800 -188,800 142,600 151,700 -171,100 -357,600 -189,600 106,400 159,500 -133,500 -375,300 -221,900 66,000 141,600 -122,800 -351,000 -194,700 113,100 139,000 -135,200 -340,100 -228,400 89,000 119,200 -152,400 -335,200 -222,600 62,000 150,300 -135,600 -357,600 -188,600 106,300 143,300 -130,000 -350,100 -215,900 98,500 158,500 -125,100 -377,900 -206,900 94,100 130,900 -154,200 -380,300 -224,100 160,800 180,100 -162,900 -396,700 -233,000 87,800 126,600 -154,000 -362,700 -219,900 6,400 90,100 -107,500 -345,100 -214,300 76,400 132,700 -157,900 -385,200 -257,200 54,600 106,700 -174,900 -414,100 -299,600 45,200 104,800 -167,900 -372,800 -240,000 77,600 106,800 -224,000 -436,300 -268,500 62,300 94,900 -199,800 -417,500 -267,700 61,000 72,000 -219,000 -412,000 -259,500 27,700 68,000 -206,300 -413,000 -280,500 70,200 101,300 -206,300 -413,600 -261,300 45,900 90,500 -153,800 -405,500 -308,500 50,600 99,000 -187,100 -386,900 -222,700 61,000 55,000 -201,200 -413,000 -261,500 83,900 118,100 -190,100 -417,700 -262,900 64,000 120,800 -164,700 -386,100 -205,000 102,000 109,600 -204,500 -378,000 -159,700 88,000 93,700 -171,500 -385,400 -203,300 118,100 131,600 -185,600 -376,600 -209,500 85,300 120,200 -164,800 -376,800 -198,400 132,100 125,800 -203,000 -400,400 -210,500 91,400 124,000 -174,400 -395,000 -255,400 103,000 114,100 -168,700 -378,400 -228,400 62,200 125,800 -144,000 -356,100 -201,700 78,000 90,000 -182,200 -424,700 -281,700 29,500 16,900 -258,000 -438,100 -204,500 81,100 115,400 -181,100 -432,800 -262,400 78,900 113,300 -173,900 -388,500 -240,800 66,400 94,600 -174,200 -396,800 -254,500 55,800 98,900 -203,400 -449,800 -257,300 53,700 86,600 -214,400 -468,500 -325,400 -45,600 -9,100 -190,300 -381,900 -215,900 75,700 86,500 -179,600 -399,100 -281,800 28,500 82,300 -173,000 -378,600 -236,900 50,800 53,100 -197,900 -386,700 -237,800 28,500 75,600 -192,600 -403,100 -290,000 40,500 121,200 -154,500 -356,400 -271,400 30,000 129,200 -152,700 -405,900 -259,800 81,400 118,200 -197,900 -428,700 -255,300 61,700 69,400 -248,700 -450,600 -295,400 1,600 49,200 -205,100 -416,800 -284,400 -28,900 17,500 -175,800 -420,000 -290,600 -12,000 18,500 -267,300 -461,300 -290,100 12,700 67,400 -272,100 -480,100 -273,200 28,200 15,600 -265,100 -488,100 -322,600 45,700 74,000 -274,300 -512,700 -297,600 22,700 39,400 -222,100 -468,400 -328,700 46,500 102,700 -185,600 -444,600 -307,100 26,300 77,300 -183,900 -339,500 -231,400 21,600 83,300 -186,900 -407,900 -262,000 57,800 121,000 -177,600 -402,000 -245,700 106,700 142,300 -206,400 -424,200 -202,600 92,000 107,000 -138,700 -354,200 -219,800 85,900 191,700 -128,200 -329,600 -149,800 132,400 149,200 -135,300 -295,100 -111,100 251,800 256,700 -128,100 -311,100 -153,000 167,000 197,100 -76,900 -218,200 -62,400 192,700 191,700 -63,200 -272,500 -80,300 254,400 255,100 -112,100 -290,800 -68,300 249,600 244,900 -68,800 -248,200 -96,400 214,400 271,400 -2,000 -212,300 -40,300 233,300 220,200 -57,000 -254,700 -0,300 280,000 244,800 -37,000 -247,300 -89,200 250,600 315,800 31,400 -255,000 -64,000 245,800 283,100 -59,500 -277,900 -71,800 259,400 340,900 41,800 -259,900 -120,700 284,400 261,600 -96,400 -272,600 -36,400 294,900 305,900 -48,900 -365,500 -138,400 240,700 297,300 -42,500 -259,000 -79,900 203,300 238,100 -60,300 -364,100 -107,400 265,100 237,600 -115,400 -350,100 -141,900 187,500 206,100 -73,300 -302,200 -155,000 155,900 106,200 -176,400 -329,900 -202,300 102,500 186,600 -108,100 -408,200 -219,500 131,600 147,400 -173,100 -393,100 -199,400 128,300 117,300 -175,500 -450,800 -213,600 -8,100 97,000 -137,500 -362,400 -210,500 51,500 42,200 -245,000 -448,400 -200,000 75,700 104,800 -190,300 -485,400 -265,900 37,100 138,700 -205,300 -507,200 -269,100 27,500 66,000 -194,100 -458,600 -336,900 69,100 44,400 -228,100 -424,400 -258,300 71,900 35,200 -223,700 -439,300 -258,700 2,200 66,900 -190,900 -397,300 -290,400 41,200 103,200 -259,800 -467,800 -244,500 43,900 97,500 -224,500 -405,200 -175,800 107,200 99,800 -237,500 -422,800 -234,400 99,400 138,200 -163,600 -365,700 -182,200 53,700 69,900 -189,400 -392,000 -178,200 153,300 166,900 -130,700 -310,700 -200,700 66,900 133,900 -157,800 -352,200 -132,200 156,700 200,000 -158,700 -355,500 -159,900 179,900 195,100 -147,300 -354,000 -135,700 197,700 108,900 -193,200 -251,300 -126,500 235,300 197,000 -100,200 -308,400 -145,400 194,200 146,800 -96,900 -284,700 -88,700 227,900 208,800 -101,700 -296,200 -167,400 127,300 131,200 -112,200 -258,700 -94,700 212,500 198,100 -104,100 -321,200 -153,100 111,000 89,900 -28,100 -270,600 -133,600 181,700 206,900 -108,100 -340,400 -159,900 88,700 145,300 -109,000 -366,800 -122,200 138,900 172,300 -160,200 -395,600 -158,400 125,600 138,100 -182,100 -364,200 -161,800 131,700 128,800 -155,300 -449,400 -267,100 103,300 168,400 -130,500 -361,900 -145,700 98,800 92,100 -209,300 -409,100 -247,100 10,900 145,200 -163,400 -373,400 -197,000 66,100 93,400 -245,400 -504,800 -215,900 90,500 95,300 -239,000 -394,300 -249,800 33,500 30,500 -283,300 -394,100 -237,800 32,600 45,800 -248,900 -427,300 -276,400 23,800 80,300 -224,100 -438,800 -228,700 24,600 29,000 -193,800 -390,000 -297,400 -67,400 106,600 -177,900 -422,100 -230,600 23,400 37,900 -241,200 -428,600 -240,400 79,600 64,300 -198,900 -427,000 -210,700 96,500 70,900 -255,200 -466,200 -200,400 108,400 107,800 -242,000 -356,700 -193,200 59,100 114,500 -174,200 -372,800 -200,400 108,300 121,900 -184,600 -378,400 -192,900 122,100 146,700 -156,100 -352,700 -153,800 130,100 53,500 -196,700 -303,600 -77,100 155,200 1,600 -234,000 -388,000 -116,200 179,600 216,900 -76,900 -334,100 -180,300 145,500 168,200 -133,500 -301,300 -145,400 145,900 186,500 -93,000 -294,500 -132,700 161,300 190,400 -108,300 -311,700 -142,100 183,100 216,400 -95,600 -271,500 -107,600 190,300 201,200 -97,300 -285,900 -103,000 194,600 184,300 -102,700 -298,400 -120,700 190,400 204,600 -104,000 -291,900 -95,300 188,600 187,900 -147,200 -381,000 -140,400 235,900 232,700 -74,900 -248,200 -44,500 234,100 170,900 -167,000 -329,200 -154,900 153,500 183,300 -152,500 -357,600 -130,400 193,100 144,900 -196,600 -383,600 -182,700 148,800 155,100 -150,200 -335,600 -164,100 111,900 130,200 -163,300 -367,400 -185,900 129,300 153,100 -146,800 -357,800 -176,000 137,900 140,400 -164,000 -385,500 -163,700 160,800 87,400 -246,400 -407,000 -228,600 87,700 76,700 -212,500 -388,100 -222,600 96,700 91,100 -248,300 -419,100 -217,800 73,900 54,600 -261,200 -435,400 -248,400 35,400 24,500 -252,300 -431,200 -219,000 68,200 85,800 -229,500 -490,600 -328,400 48,300 47,700 -296,800 -489,800 -284,400 34,200 22,700 -303,000 -494,000 -280,900 21,100 0,700 -286,900 -516,400 -310,900 27,900 28,500 -270,400 -460,600 -263,100 36,300 26,900 -262,400 -429,200 -235,800 38,100 40,800 -247,200 -421,800 -234,900 33,400 35,100 -253,200 -421,000 -241,200 54,900 13,600 -232,100 -384,000 -232,900 80,200 72,900 -246,100 -417,500 -192,400 132,000 141,600 -192,000 -368,200 -201,200 73,400 118,000 -139,400 -374,400 -205,500 121,300 139,700 -139,800 -355,400 -163,200 128,500 126,300 -139,700 -304,300 -112,100 180,800 172,300 -110,800 -317,000 -190,800 117,100 140,200 -154,500 -338,600 -111,100 219,200 229,600 -89,000 -323,100 -109,900 187,000 195,400 -105,000 -295,500 -105,700 222,800 223,400 -74,500 -264,700 -104,600 210,900 226,600 -110,700 -316,600 -80,100 208,400 203,200 -40,700 -232,900 -137,700 169,100 196,900 -136,500 -308,400 -103,200 208,800 187,800 -120,500 -288,900 -92,900 210,600 165,900 -166,800 -301,400 -157,500 142,100 147,700 -133,800 -313,000 -140,900 112,700 101,400 -169,900 -353,300 -173,700 102,400 87,100 -192,100 -374,900 -209,100 85,200 77,300 -220,300 -373,600 -179,100 75,100 2,400 -333,800 -389,000 -201,100 84,700 78,100 -227,500 -400,900 -221,600 31,800 14,800 -283,800 -431,800 -252,200 52,100 41,000 -260,600 -419,900 -223,600 38,300 28,700 -259,100 -454,900 -273,500 57,700 48,000 -256,900 -410,500 -195,900 114,100 75,000 -259,800 -433,700 -203,600 103,700 78,200 -196,800 -343,700 -155,700 96,200 54,100 -237,600 -355,400 -150,600 142,600 109,700 -240,200 -414,100 -174,300 170,300 121,900 -179,800 -333,000 -147,500 125,100 106,600 -164,300 -326,800 -113,000 176,000 161,800 -135,400 -306,800 -150,400 135,200 175,900 -110,000 -330,100 -156,500 168,800 170,100 -147,200 -344,400 -90,200 178,500 110,900 -146,500 -304,700 -130,900 165,200 139,200 -152,700 -323,800 -110,800 171,400 137,200 -159,600 -326,300 -142,200 178,700 170,400 -166,300 -331,000 -133,300 175,400 170,300 -129,900 -314,700 -135,100 134,800 125,600 -176,600 -358,400 -195,200 95,300 128,400 -128,900 -335,000 -123,600 160,100 111,900 -205,400 -375,900 -163,500 109,000 95,400 -197,800 -364,900 -152,300 161,100 117,800 -212,100 -402,200 -194,400 101,900 89,400 -205,800 -362,700 -176,100 103,900 112,300 -183,800 -373,800 -212,800 84,000 132,000 -185,100 -399,100 -202,000 120,300 77,900 -270,000 -407,500 -186,800 105,500 92,800 -218,800 -405,000 -197,800 102,500 77,500 -210,200 -401,500 -169,100 131,100 85,900 -207,600 -427,600 -342,500 108,600 125,000 -225,800 -375,400 -187,700 84,700 36,600 -255,900 -412,600 -210,500 61,800 44,900 -249,000 -422,200 -222,000 50,100 38,800 -210,200 -396,700 -196,400 54,300 9,500 -246,900 -422,800 -209,300 85,900 34,300 -262,200 -426,300 -226,700 56,900 40,100 -254,200 -417,600 -222,600 79,200 64,000 -250,100 -411,200 -204,700 94,000 84,100 -195,800 -411,000 -224,200 71,700 39,400 -247,300 -388,800 -160,100 106,600 83,200 -240,700 -428,700 -196,600 112,800 87,400 -202,300 -369,200 -179,500 116,300 106,400 -202,800 -349,900 -163,800 88,500 91,900 -160,500 -357,300 -165,900 112,900 119,900 -169,100 -351,700 -168,800 101,500 95,100 -258,000 -396,000 -165,600 171,600 167,600 -184,600 -354,500 -139,400 133,000 104,100 -198,700 -375,100 -147,800 138,100 96,300 -204,000 -359,600 -151,600 119,100 100,500 -170,400 -333,200 -156,300 130,100 126,800 -228,000 -444,200 -205,700 174,000 76,900 -161,300 -351,400 -165,400 119,300 104,700 -218,000 -338,100 -149,100 126,600 127,000 -205,800 -394,400 -174,300 133,100 93,300 -199,500 -348,800 -132,000 125,400 74,000 -230,200 -412,500 -179,000 130,700 108,700 -199,200 -351,300 -209,400 34,800 59,400 -200,700 -394,700 -221,900 57,900 17,300 -302,500 -489,300 -229,400 65,300 39,400 -261,100 -467,400 -272,000 14,500 -36,300 -307,500 -452,200 -252,800 29,200 -29,200 -342,400 -511,600 -302,800 70,100 53,900 -323,300 -470,800 -250,700 10,400 -18,100 -334,100 -464,800 -224,200 48,800 -15,800 -293,300 -435,300 -241,900 22,000 5,000 -296,500 -476,300 -248,400 54,100 27,000 -282,600 -428,200 -225,200 57,700 22,000 -270,900 -425,200 -243,800 30,600 27,200 -276,400 -414,100 -159,100 116,100 94,500 -215,300 -406,100 -226,100 76,700 147,900 -193,300 -352,300 -126,900 139,500 94,200 -221,000 -361,700 -167,300 157,000 140,400 -205,700 -368,200 -141,600 141,600 145,700 -171,800 -325,300 -103,600 154,000 140,800 -151,000 -324,000 -118,900 173,900 141,300 -106,800 -246,600 -74,700 224,500 199,200 -159,000 -259,700 -36,700 197,800 164,700 -106,300 -228,200 -48,400 198,300 221,900 -113,400 -306,100 -84,100 249,200 210,800 -92,800 -252,400 -47,400 232,900 193,600 -120,800 -248,400 -27,600 293,900 246,200 -121,600 -222,900 1,100 262,500 231,300 -102,600 -238,000 -29,000 275,600 253,900 -54,800 -276,900 -41,300 247,800 253,700 -83,400 -243,700 -46,400 242,700 227,600 -59,700 -244,100 -35,600 252,300 211,700 -84,700 -215,500 -3,100 293,400 264,100 -34,000 -166,300 -41,000 236,300 235,700 -68,300 -234,300 -33,000 298,700 295,800 -70,200 -217,200 -4,700 254,500 261,900 -22,200 -248,500 -34,600 302,600 251,800 -52,000 -210,900 -3,700 265,600 244,000 -40,300 -191,400 -22,300 298,000 274,300 -90,300 -239,700 -32,000 241,700 241,900 -70,300 -270,000 -13,200 267,200 191,500 -108,100 -301,900 -60,000 254,600 215,700 -138,700 -305,000 -53,800 241,000 221,400 -138,900 -294,000 -104,300 182,300 166,100 -154,600 -281,200 -82,700 199,800 156,400 -159,100 -331,000 -88,700 196,500 168,000 -135,300 -301,500 -105,000 168,300 94,600 -86,800 -308,700 -139,700 166,200 149,000 -133,100 -307,800 -136,600 157,300 105,400 -138,300 -296,700 -149,500 143,200 142,700 -182,400 -336,100 -119,600 175,900 142,600 -165,800 -313,800 -100,400 160,500 107,200 -205,400 -381,300 -76,100 214,100 157,200 -187,700 -353,500 -113,100 184,300 135,000 -164,000 -351,100 -67,900 206,000 150,800 -138,000 -313,100 -93,200 184,200 164,400 -130,000 -290,800 -89,800 199,400 196,100 -108,800 -288,900 -84,700 210,800 187,000 -122,200 -250,500 -35,700 252,000 192,400 -160,800 -276,000 -36,900 231,200 228,900 -79,000 -222,100 -30,400 239,100 179,500 -110,800 -232,100 -30,700 271,300 234,300 -86,400 -264,000 -84,400 283,700 253,200 -43,900 -225,600 -29,900 274,800 233,400 -97,200 -249,800 -20,100 293,700 272,500 -91,800 -231,600 -10,400 264,400 201,900 -128,800 -252,100 8,300 269,600 217,800 -87,300 -246,800 -23,800 267,100 216,000 -101,000 -258,700 -61,800 248,900 233,400 -55,500 -235,600 -81,500 225,000 207,000 -126,200 -269,500 -52,200 230,900 199,000 -91,900 -273,200 -42,000 248,700 192,700 -129,500 -295,500 -56,600 232,100 191,800 -108,600 -285,000 -79,100 228,800 172,200 -149,800 -305,600 -109,900 199,900 195,300 -115,700 -288,900 -83,200 184,900 132,000 -188,700 -343,100 -126,900 170,800 154,900 -158,600 -332,000 -127,000 168,600 125,900 -193,300 -345,300 -130,900 161,200 128,000 -184,400 -341,000 -135,400 149,100 126,900 -181,700 -338,500 -125,700 169,200 144,500 -159,500 -331,700 -126,200 172,500 145,400 -178,300 -343,800 -115,100 161,000 143,300 -160,500 -332,500 -140,400 166,800 146,600 -189,800 -343,000 -91,400 172,600 133,600 -181,200 -330,400 -113,600 188,200 156,700 -163,400 -323,100 -105,000 183,600 150,700 -144,000 -323,300 -125,600 182,400 148,600 -142,800 -275,200 -86,500 162,000 135,100 -176,000 -305,900 -57,100 193,200 149,800 -138,200 -311,400 -120,600 195,200 156,200 -158,800 -322,900 -115,300 186,800 146,700 -162,600 -307,600 -75,300 200,000 153,500 -142,000 -322,700 -113,600 192,700 166,700 -152,000 -311,400 -97,500 245,800 227,300 -131,500 -315,300 -107,400 160,300 147,900 -136,400 -319,300 -98,400 207,300 158,000 -174,000 -340,000 -116,800 173,000 137,300 -161,500 -318,900 -96,900 196,700 161,200 -190,600 -365,900 -131,800 179,600 155,500 -173,000 -337,100 -128,300 167,500 115,900 -189,000 -361,000 -133,600 151,100 103,800 -212,000 -368,000 -153,700 141,300 96,600 -209,900 -369,400 -178,000 117,900 80,900 -243,900 -409,600 -180,300 110,400 73,400 -226,600 -399,200 -190,600 99,800 65,600 -251,300 -426,500 -198,100 124,500 92,200 -227,500 -410,900 -198,400 104,100 69,000 -230,300 -390,100 -168,100 129,300 84,100 -229,200 -388,700 -149,600 113,500 88,500 -237,700 -431,500 -196,500 70,200 58,400 -219,200 -368,300 -158,800 118,300 77,400 -221,800 -371,200 -155,300 124,000 87,000 -214,500 -361,100 -143,700 149,900 91,800 -215,600 -339,300 -114,700 155,900 62,700 -247,600 -326,600 -122,600 128,800 116,200 -160,500 -333,300 -172,300 117,900 125,600 -200,500 -351,000 -141,000 157,700 125,900 -192,800 -363,400 -140,500 177,400 161,500 -166,700 -339,400 -141,900 157,500 129,500 -173,600 -330,600 -145,300 149,700 148,800 -189,100 -324,100 -108,400 208,300 164,700 -181,700 -362,200 -115,900 184,000 135,600 -144,700 -307,900 -90,300 202,600 180,600 -151,800 -303,800 -74,100 191,500 140,900 -148,400 -265,300 -88,500 203,200 129,700 -154,300 -300,200 -45,100 285,600 200,600 -169,900 -328,800 -160,800 220,300 215,600 -104,300 -260,500 -98,100 190,400 138,700 -153,500 -334,200 -81,400 203,800 215,800 -84,000 -333,700 -140,400 172,700 152,900 -157,400 -303,000 -73,900 193,200 162,200 -151,800 -313,000 -93,600 199,300 146,800 -151,800 -317,800 -105,600 162,900 100,000 -176,600 -308,200 -72,300 205,700 145,600 -189,100 -338,600 -101,100 236,500 180,300 -201,700 -343,000 -134,800 158,500 144,000 -185,300 -370,100 -147,300 172,400 136,400 -146,500 -290,900 -106,000 151,400 90,100 -185,700 -349,400 -100,000 189,000 147,300 -154,500 -312,900 -74,900 189,900 124,800 -211,200 -352,900 -105,700 161,900 188,100 -151,900 -333,500 -122,200 177,600 137,500 -211,400 -402,600 -36,200 181,700 153,700 -145,900 -320,900 -100,000 202,800 162,000 -180,200 -326,200 -104,500 156,500 62,200 -165,600 -276,800 -90,300 173,100 139,300 -177,500 -317,000 -100,900 146,300 112,800 -129,900 -297,900 -92,300 176,300 117,800 -177,100 -314,500 -106,300 171,300 135,500 -186,200 -323,800 -126,100 89,100 125,400 -119,500 -323,400 -115,500 199,000 180,400 -175,500 -349,100 -138,100 153,200 114,300 -229,600 -342,400 -71,600 178,700 111,600 -200,300 -346,500 -136,400 168,700 117,800 -207,000 -381,300 -144,700 191,700 147,300 -180,500 -344,200 -115,300 141,900 95,300 -232,000 -370,300 -110,000 165,300 111,000 -202,800 -341,900 -130,300 150,500 89,000 -224,600 -298,500 -83,600 161,100 81,800 -226,800 -357,700 -123,100 167,300 113,800 -204,400 -391,700 -163,800 134,200 100,200 -193,900 -351,000 -139,200 153,100 115,000 -228,500 -379,100 -138,600 132,500 106,200 -211,400 -346,200 -119,400 186,500 115,200 -235,300 -385,300 -143,000 147,200 100,000 -214,000 -354,300 -129,600 147,100 101,200 -210,100 -370,400 -159,000 117,400 93,800 -205,900 -358,900 -169,600 103,700 85,800 -181,100 -337,800 -150,400 122,400 86,600 -212,300 -376,700 -173,000 115,400 96,700 -206,800 -357,300 -122,600 136,000 91,100 -264,000 -382,800 -111,200 146,500 89,400 -239,600 -358,200 -167,100 94,700 66,800 -234,000 -365,500 -143,700 130,100 77,200 -226,700 -365,500 -151,500 126,300 55,300 -295,000 -335,400 -110,900 172,300 108,700 -259,400 -416,600 -166,000 119,200 90,300 -225,200 -374,600 -145,800 131,800 103,100 -204,400 -366,700 -157,800 120,800 69,400 -229,900 -349,700 -134,200 134,900 70,900 -229,000 -339,100 -156,400 125,600 104,000 -207,400 -366,900 -165,800 122,100 71,800 -225,600 -365,900 -142,900 120,700 59,000 -245,700 -408,000 -167,500 171,500 126,200 -195,400 -368,700 -149,200 143,900 76,400 -221,700 -353,700 -141,100 142,900 120,500 -221,900 -385,000 -162,100 148,300 82,400 -234,900 -386,800 -192,900 142,300 101,500 -216,300 -373,700 -143,300 113,500 40,800 -234,300 -355,800 -134,300 134,900 93,000 -236,500 -384,600 -153,500 119,100 94,600 -214,000 -387,800 -225,400 88,900 95,000 -246,700 -341,700 -149,600 148,500 90,300 -256,300 -385,700 -157,700 93,900 69,500 -229,000 -377,900 -155,700 146,600 77,700 -232,200 -363,300 -159,500 112,700 75,900 -241,600 -376,700 -142,400 133,000 66,600 -242,800 -391,900 -150,300 134,300 105,300 -254,100 -365,100 -157,500 95,700 71,700 -230,200 -367,500 -115,000 136,600 50,100 -247,500 -363,600 -140,000 110,300 41,300 -230,500 -385,500 -180,500 103,900 95,600 -182,300 -352,000 -153,500 133,700 42,700 -269,900 -359,200 -146,900 61,700 34,800 -247,700 -370,500 -181,300 100,400 49,700 -253,200 -382,100 -150,800 112,800 66,200 -258,000 -414,900 -199,700 109,900 83,600 -210,600 -342,700 -146,300 90,100 65,000 -222,400 -398,900 -191,200 117,100 93,900 -226,200 -374,800 -153,800 116,900 50,300 -241,700 -382,700 -138,500 179,500 128,400 -229,300 -399,400 -146,700 196,600 137,200 -219,700 -319,200 -80,100 183,300 88,200 -238,000 -329,600 -86,100 166,600 98,000 -199,300 -315,800 -82,300 147,100 87,700 -198,500 -304,000 -60,100 153,400 81,700 -240,300 -324,600 -49,000 210,200 105,800 -211,200 -344,600 -119,700 206,200 175,600 -210,700 -341,300 -61,700 223,500 169,100 -158,900 -292,500 -71,100 193,100 146,300 -169,700 -310,900 -51,800 221,100 195,100 -119,200 -263,000 -25,700 272,200 177,500 -152,700 -252,100 -1,700 311,900 250,300 -107,500 -288,000 -38,900 310,100 247,100 -88,100 -257,300 -20,300 307,500 238,400 -155,600 -262,600 22,200 315,100 212,400 -164,100 -244,800 26,200 277,800 228,700 -93,100 -251,700 -5,800 284,200 192,000 -103,900 -243,100 3,300 292,300 216,600 -63,500 -208,300 25,900 290,800 185,100 -143,400 -196,300 41,300 250,700 227,100 -39,400 -214,400 18,000 263,000 177,000 -116,500 -176,700 107,900 300,200 230,500 -75,700 -199,300 8,200 305,100 277,300 -61,300 -181,900 47,800 304,000 298,500 -28,400 -182,100 57,500 321,600 222,900 -103,300 -178,000 87,100 407,800 295,300 -27,800 -211,500 37,900 365,700 275,300 -48,800 -150,400 58,200 317,200 277,200 -55,700 -159,600 47,700 333,300 277,700 -93,000 -235,400 -1,400 302,300 260,600 -70,100 -205,300 29,600 262,700 203,200 -86,900 -255,300 -5,300 251,400 201,500 -103,500 -222,900 -6,800 232,200 144,200 -167,800 -292,800 -44,200 247,000 179,000 -97,400 -246,000 -51,900 205,300 98,300 -192,600 -249,300 -31,900 223,900 144,400 -165,300 -352,000 -104,400 224,600 132,000 -147,300 -249,600 -65,100 183,300 153,300 -197,200 -326,200 -34,300 197,100 128,700 -186,900 -313,300 -70,600 151,200 150,900 -139,300 -265,600 -38,000 193,500 93,700 -238,700 -330,600 -7,200 249,200 170,900 -158,900 -322,200 -78,200 177,900 132,300 -144,500 -244,600 -22,000 233,600 167,700 -168,000 -281,200 -43,800 261,200 189,100 -147,100 -202,300 21,300 188,100 125,200 -147,600 -246,600 -50,700 188,800 162,600 -134,900 -260,800 -22,900 240,500 170,600 -139,400 -253,300 -55,900 156,500 232,500 -78,000 -250,400 -11,300 266,100 182,200 -149,100 -285,100 -62,900 249,400 232,100 -87,300 -213,200 11,400 277,800 211,400 -116,700 -239,400 -32,600 229,700 192,100 -114,800 -203,100 -11,600 237,700 160,500 -171,300 -252,200 41,100 304,100 227,900 -108,400 -247,700 -48,700 151,900 155,200 -63,100 -202,800 58,900 269,600 171,800 -126,200 -254,300 -24,900 249,600 175,600 -135,500 -256,400 3,400 291,200 213,400 -136,400 -271,400 -67,500 244,200 186,000 -122,800 -241,300 -6,200 258,200 55,900 -120,500 -233,200 -45,900 238,500 163,100 -147,700 -280,500 -60,400 237,900 167,800 -154,000 -278,800 -36,300 238,100 148,400 -165,600 -308,000 -50,500 200,600 130,900 -143,200 -279,100 -51,200 215,100 155,300 -167,200 -292,500 -102,000 218,200 166,400 -183,800 -300,800 -53,300 196,600 122,600 -190,300 -297,900 -47,400 214,600 136,700 -188,400 -307,700 -73,200 184,700 125,900 -176,500 -281,700 -35,100 236,600 149,700 -190,800 -303,800 -59,200 229,900 164,600 -163,600 -271,600 -9,700 240,200 115,100 -186,600 -291,600 -49,900 223,800 169,500 -150,900 -269,600 -38,300 223,800 160,100 -123,600 -264,200 -52,000 225,200 137,800 -162,500 -273,700 -42,200 248,700 168,400 -144,700 -250,400 -10,500 262,400 192,800 -138,600 -279,500 -34,500 254,100 214,300 -97,300 -257,500 -8,600 274,700 202,500 -138,600 -305,600 -46,400 257,600 186,000 -125,100 -240,600 -29,600 232,700 159,200 -119,900 -220,000 1,400 280,900 212,400 -108,300 -239,400 17,900 274,800 200,200 -97,600 -218,700 7,900 272,200 217,400 -57,700 -176,500 9,400 274,600 197,400 -147,900 -249,600 6,200 292,000 198,900 -131,900 -272,800 -6,800 281,200 201,000 -119,800 -237,500 18,400 263,400 182,100 -115,300 -241,400 0,900 279,600 205,400 -119,100 -261,100 -33,300 260,300 177,500 -146,700 -260,300 -35,900 219,700 159,600 -151,600 -289,900 -46,700 242,400 159,000 -160,100 -299,800 -62,800 261,000 194,400 -174,100 -325,400 -63,900 237,000 185,600 -163,300 -298,500 -47,200 198,900 119,900 -192,400 -318,200 -87,300 216,700 142,900 -189,900 -331,000 -105,100 195,800 138,100 -204,000 -359,300 -104,700 158,400 85,000 -234,400 -352,500 -104,300 149,100 77,700 -222,100 -354,400 -105,200 166,100 103,000 -235,100 -369,000 -158,300 133,800 153,500 -222,500 -385,700 -134,600 162,300 94,900 -247,000 -381,800 -132,500 127,800 54,400 -262,700 -379,700 -140,700 133,700 69,600 -229,100 -319,500 -105,300 123,200 55,100 -243,700 -383,600 -150,000 94,300 9,200 -212,100 -311,100 -69,500 178,400 85,200 -209,500 -356,900 -122,400 178,900 113,400 -206,900 -323,200 -83,300 167,300 90,900 -186,000 -292,400 -73,500 134,000 80,400 -213,800 -341,800 -77,100 211,200 140,100 -180,500 -322,400 -46,700 265,300 155,400 -217,100 -324,700 -90,900 191,800 126,500 -203,400 -314,300 -71,300 198,300 161,600 -160,700 -288,200 -42,600 219,000 158,800 -186,500 -279,000 -22,300 241,900 169,800 -144,000 -271,200 -19,400 231,300 179,900 -107,800 -231,800 -19,500 194,400 168,300 -69,400 -203,300 -39,900 171,400 154,500 -142,400 -295,100 -26,300 227,800 164,300 -131,400 -262,400 -29,800 240,400 155,600 -136,900 -272,300 -36,500 237,100 152,200 -207,500 -257,200 -13,600 241,500 163,800 -116,900 -239,900 -21,100 242,000 136,900 -166,400 -262,400 -34,400 218,500 162,200 -107,200 -262,100 -27,800 309,200 252,000 -155,300 -299,800 -45,200 210,000 139,600 -154,000 -266,900 -63,500 187,400 162,000 -167,800 -280,900 -34,900 239,600 162,600 -171,200 -279,500 -48,100 229,800 141,900 -168,500 -293,100 -50,500 229,200 152,600 -187,100 -322,800 -43,200 268,000 198,400 -132,300 -302,600 -132,700 141,400 140,600 -169,700 -290,000 -75,600 183,400 145,900 -160,700 -289,700 -73,400 188,400 102,400 -198,900 -293,000 -44,900 214,900 116,600 -202,300 -285,400 -48,500 216,800 169,500 -155,100 -352,300 -63,100 220,700 141,000 -164,300 -302,300 -82,400 153,000 112,900 -131,600 -272,800 -61,300 204,400 138,200 -148,600 -266,800 -26,700 238,800 164,100 -174,100 -286,600 -32,600 219,300 181,000 -148,900 -273,700 -20,900 239,100 187,000 -60,100 -277,900 -70,100 224,600 157,500 -131,500 -229,700 -6,800 225,100 147,700 -146,700 -263,800 3,700 275,300 175,700 -115,900 -255,300 -46,300 224,000 168,300 -124,600 -250,300 -76,600 219,200 195,400 -124,900 -266,300 -25,300 230,600 178,100 -128,200 -241,300 -5,100 253,600 173,500 -138,000 -253,900 -15,700 262,500 215,300 -68,200 -207,200 -28,600 222,600 168,400 -160,300 -292,000 -20,500 257,700 147,600 -149,700 -250,300 -32,800 230,200 151,400 -157,600 -241,100 -10,000 255,200 175,400 -141,100 -267,200 -31,700 238,600 165,900 -144,700 -235,600 23,300 249,600 157,600 -189,300 -300,400 -25,400 246,600 174,700 -184,100 -349,700 -23,100 248,400 156,600 -164,700 -286,500 -40,800 228,700 152,400 -160,500 -287,500 -45,400 206,100 143,100 -144,800 -256,600 -29,200 223,300 145,000 -165,300 -291,100 -104,900 197,900 161,200 -166,500 -320,400 -81,100 231,500 153,200 -135,600 -268,400 -69,700 171,000 124,600 -165,000 -285,800 -46,400 230,500 167,100 -143,200 -288,800 -38,200 196,800 112,000 -182,200 -252,000 -48,600 188,200 152,700 -150,600 -314,600 -89,100 198,200 137,800 -196,300 -312,700 -45,500 238,700 175,000 -161,700 -291,300 -96,900 164,700 119,300 -173,300 -264,600 -46,400 208,700 133,000 -194,800 -297,400 -38,700 207,800 124,000 -175,100 -280,900 -52,500 223,800 155,100 -140,800 -267,100 -42,500 217,300 173,100 -150,200 -322,100 -69,800 228,500 154,600 -136,000 -287,600 -42,500 221,100 155,200 -166,200 -289,900 -44,400 212,100 138,100 -158,900 -290,300 -59,500 217,800 136,000 -175,300 -282,100 -8,100 257,100 157,200 -173,700 -266,000 -12,800 244,800 156,300 -196,600 -293,700 44,300 283,800 155,900 -151,500 -266,500 -11,900 245,900 186,100 -110,300 -233,900 -10,700 239,800 191,300 -142,200 -268,200 -17,100 248,400 135,400 -166,400 -264,900 -19,600 221,400 105,900 -125,100 -200,500 11,000 246,900 178,500 -148,700 -271,400 -53,400 218,400 177,800 -126,700 -255,600 -25,000 231,900 144,100 -167,600 -277,500 -17,100 238,700 157,000 -148,400 -256,600 -8,100 223,100 148,600 -146,700 -264,800 -43,400 229,800 164,000 -150,900 -293,600 -61,900 231,800 182,700 -147,700 -270,900 -66,900 195,400 148,800 -176,000 -290,800 -34,800 234,100 122,000 -179,000 -237,700 -24,900 180,700 142,300 -173,500 -309,900 -54,100 226,300 124,300 -162,800 -262,300 -80,300 164,700 105,900 -219,800 -320,100 -54,600 204,300 88,400 -220,200 -318,400 -43,600 207,700 123,900 -207,800 -316,700 -66,800 211,000 112,000 -237,300 -335,700 -122,900 157,800 116,000 -152,300 -286,200 -72,500 193,900 125,900 -186,800 -311,300 -46,600 241,600 151,800 -150,800 -277,400 -51,000 223,000 157,400 -139,600 -236,800 22,700 280,700 205,100 -124,300 -246,700 18,200 347,800 283,400 -113,700 -225,700 64,700 333,900 238,600 -88,700 -137,500 103,400 346,500 274,800 -59,100 -216,800 52,300 389,500 325,800 -16,700 -135,100 88,600 433,000 329,300 -31,200 -127,500 121,800 391,400 331,500 10,600 -115,800 154,700 435,800 379,400 52,200 -85,700 159,100 416,100 355,000 -1,200 -134,300 191,700 476,700 383,800 73,000 -62,000 179,400 447,800 354,500 63,400 -46,000 230,300 483,200 428,200 119,600 -22,000 211,200 467,600 359,200 81,400 -19,200 225,500 508,600 389,200 116,800 20,300 238,600 465,900 377,900 77,400 1,800 272,700 571,600 448,500 48,200 54,100 280,400 501,300 437,200 119,500 -10,200 265,400 536,500 467,100 127,600 12,700 262,600 524,300 458,900 116,300 -42,500 225,200 507,700 405,400 117,200 55,200 294,800 519,700 420,500 96,700 -16,900 200,000 506,700 434,400 105,900 -18,500 244,600 501,900 424,900 76,100 -69,300 184,000 515,700 418,000 90,200 -22,200 217,800 422,100 400,500 106,700 -39,000 215,100 482,200 360,900 49,600 -58,600 197,100 445,500 362,900 42,100 -54,100 200,000 463,200 338,000 34,000 12,300 196,200 404,900 347,000 0,800 -78,000 176,500 468,200 381,500 34,100 -116,300 145,500 395,800 283,800 56,900 -50,100 157,400 422,100 325,200 10,300 -57,200 216,300 466,300 252,800 -110,900 -68,200 218,100 496,100 376,900 42,600 -65,800 163,000 410,500 320,400 13,400 -76,800 202,000 464,300 315,600 8,300 -60,500 252,300 529,400 404,100 -18,700 -168,100 187,200 504,600 393,100 75,600 -34,100 216,800 485,700 377,500 30,100 -68,900 276,800 546,500 453,500 108,000 0,400 275,500 508,700 424,200 14,500 -85,700 284,300 649,700 498,100 88,700 2,100 274,900 499,300 358,000 93,600 58,200 311,100 559,100 413,300 112,400 36,400 311,900 561,900 414,700 61,500 13,000 317,300 564,000 477,200 190,500 60,800 290,900 555,900 444,100 103,000 -23,400 294,800 572,400 489,900 188,000 50,900 259,100 512,300 481,300 157,500 79,600 326,200 556,300 401,000 115,600 45,800 295,100 545,500 440,500 85,600 -12,500 294,700 573,900 456,600 104,700 -10,400 274,200 505,400 428,200 157,400 79,100 289,500 503,200 451,600 118,600 -69,000 253,200 575,500 435,700 117,300 -1,200 244,000 502,700 317,900 113,900 10,900 290,400 519,500 408,700 73,900 -0,300 253,500 501,600 399,100 62,200 -10,200 264,000 503,900 382,000 67,200 -58,200 222,400 538,400 410,300 91,000 16,100 259,700 437,400 330,900 42,200 -21,600 250,000 496,700 391,900 35,400 -56,300 241,900 488,300 372,100 71,000 -21,500 250,200 490,400 374,700 57,500 -27,800 253,000 470,900 396,700 87,500 14,000 285,200 493,300 361,000 52,000 -22,200 230,600 484,000 389,800 88,200 42,500 291,400 499,100 357,600 53,800 -0,100 271,000 508,200 407,400 95,100 7,500 282,700 530,800 415,900 99,700 21,100 296,000 545,000 430,500 108,500 38,500 314,900 567,900 451,400 128,500 51,700 298,900 535,000 423,000 108,100 38,400 329,400 547,500 459,000 154,500 51,300 285,100 541,000 424,100 123,200 61,900 333,600 569,200 416,200 114,000 56,200 322,500 557,600 443,500 128,900 57,400 316,700 547,800 432,700 126,700 44,400 317,100 567,900 454,900 140,800 24,800 303,700 553,600 451,500 161,800 48,400 309,400 516,100 384,700 102,000 50,900 316,400 538,500 393,700 81,300 -0,900 277,400 505,500 387,300 69,100 1,800 275,500 497,400 376,600 76,400 -12,000 255,100 495,500 362,000 49,100 1,300 256,300 485,700 335,100 15,800 -38,300 244,500 463,300 346,800 35,000 -61,900 180,400 399,100 291,000 -22,500 -70,500 211,400 405,500 269,300 -15,000 -84,100 190,000 418,500 269,400 -50,900 -108,100 173,500 424,900 290,300 -25,100 -70,600 209,300 426,500 267,600 -70,300 -149,000 137,300 402,400 289,100 -4,100 -69,300 188,400 367,600 236,700 -54,600 -109,700 157,000 396,700 270,700 -25,800 -87,800 184,400 386,200 273,900 -23,400 -76,700 194,900 408,900 288,500 -9,100 -95,200 178,000 414,800 298,600 16,500 -38,800 225,900 438,300 259,800 -61,000 -51,400 239,800 463,500 324,700 -4,100 -84,300 209,700 445,100 311,100 -21,200 -72,200 229,300 460,000 339,600 14,900 -24,100 292,000 467,500 300,900 30,400 -15,100 251,200 494,800 374,300 52,500 0,100 255,000 454,800 390,100 101,600 39,100 301,400 520,200 386,800 85,500 58,700 343,600 528,800 379,100 82,900 27,500 305,100 542,400 418,700 64,500 -7,400 279,900 539,500 396,500 78,300 -0,900 274,900 515,300 408,300 85,100 44,800 303,300 523,700 401,500 114,000 48,000 334,800 575,100 437,000 96,000 -20,800 242,600 512,700 392,300 101,100 85,100 320,300 461,800 355,600 41,900 -66,700 247,600 494,200 328,900 31,400 14,200 260,300 474,400 355,300 17,400 -37,700 227,700 447,500 338,400 37,900 -32,000 234,100 438,600 302,300 40,700 3,000 236,900 425,600 314,400 30,000 -10,300 249,200 457,100 299,500 25,500 5,700 247,000 417,100 275,900 -49,800 -84,500 207,600 419,600 303,300 2,300 -115,200 121,500 458,200 342,900 1,800 -63,800 212,200 441,700 310,300 -5,400 -76,200 180,900 398,200 344,100 65,800 -55,900 218,500 425,900 276,900 -25,100 -53,900 194,600 369,700 227,200 -28,200 -50,900 203,900 428,500 283,600 -47,800 -104,900 228,300 468,100 328,100 -2,500 -74,800 197,100 407,900 289,500 -31,400 -83,600 221,200 434,400 285,600 -38,000 -49,500 218,500 468,400 329,700 -17,500 -97,200 169,500 410,100 292,600 -0,900 -55,700 230,700 451,400 286,000 -23,400 -71,300 219,400 441,700 303,600 -15,000 -62,400 219,900 440,700 288,600 -31,700 -53,800 237,400 448,600 312,600 6,400 -63,000 222,400 418,900 280,800 1,800 -80,000 192,100 422,300 296,200 -23,900 -80,300 199,200 434,800 295,200 -23,000 -64,700 204,900 413,800 264,700 -10,900 -81,900 225,100 471,700 328,700 -5,700 -76,900 174,000 383,100 253,500 -25,900 -58,200 215,800 450,900 274,800 -59,900 -106,700 177,300 393,200 241,900 -74,100 -83,100 202,900 397,800 268,200 -51,100 -93,600 231,200 414,500 247,600 -60,500 -133,200 151,100 378,000 216,000 -85,500 -127,800 174,400 408,000 223,400 -75,400 -107,800 164,600 382,200 199,600 -106,700 -165,000 136,900 376,900 240,900 -87,000 -168,900 110,500 314,100 192,000 -100,400 -160,000 101,800 325,800 194,000 -101,700 -131,800 133,600 338,700 188,100 -125,000 -155,800 141,400 337,100 167,000 -117,600 -160,600 125,900 319,500 163,500 -169,100 -223,000 131,800 343,500 181,600 -113,800 -169,100 102,100 342,000 189,000 -127,900 -173,700 104,800 345,200 210,000 -110,000 -174,500 94,100 305,100 144,100 -116,500 -179,400 89,100 327,700 155,600 -158,500 -209,800 114,600 353,800 189,600 -136,700 -200,500 66,300 330,400 176,700 -159,100 -197,000 67,300 293,300 150,700 -171,600 -234,500 76,200 335,500 188,300 -125,600 -166,700 80,800 304,000 181,300 -130,900 -174,200 74,800 301,600 154,400 -136,400 -211,400 71,900 311,000 170,200 -150,500 -204,200 64,600 326,400 211,300 -145,200 -191,300 75,700 296,800 171,200 -156,400 -300,900 14,800 416,400 228,800 -126,600 -213,800 80,900 318,200 159,400 -121,600 -147,500 95,400 312,400 185,500 -151,600 -212,100 90,000 316,400 182,400 -123,900 -201,100 49,200 299,100 190,500 -154,000 -242,200 29,700 269,200 226,800 -59,200 -198,700 91,300 299,000 152,500 -127,000 -166,800 113,700 327,400 163,700 -150,200 -222,500 56,900 295,200 134,700 -194,300 -263,600 20,000 246,100 85,400 -228,900 -258,300 27,300 252,200 123,700 -182,500 -241,600 49,700 228,200 52,400 -222,000 -250,100 -2,900 230,300 93,500 -218,600 -251,400 13,400 248,700 76,500 -239,000 -278,700 27,700 244,400 76,600 -219,000 -271,300 -9,700 233,200 105,500 -176,500 -215,300 49,400 259,200 100,700 -219,100 -255,600 65,500 298,700 149,100 -201,000 -235,400 78,600 266,300 109,600 -182,100 -223,200 82,600 283,700 86,700 -202,900 -233,100 55,200 262,200 110,800 -175,800 -160,400 82,200 287,300 119,400 -192,900 -224,000 85,900 295,000 154,300 -140,600 -171,300 118,500 330,100 132,400 -162,900 -182,400 152,500 365,200 196,400 -137,200 -178,000 101,600 341,400 184,200 -118,900 -145,200 131,300 344,200 201,300 -105,800 -188,200 110,100 382,200 273,900 -65,600 -149,300 138,700 349,700 180,000 -76,100 -60,200 208,600 390,600 222,000 -94,700 -97,500 198,200 426,200 213,600 -66,800 -96,600 172,700 375,400 230,400 -99,100 -100,900 206,400 368,200 174,100 -135,600 -135,400 196,600 405,900 265,200 -99,300 -157,200 175,600 403,200 253,800 -37,200 -142,700 137,500 364,400 268,500 -59,300 -140,500 191,000 445,200 271,200 -70,400 -134,600 139,000 406,600 274,800 -77,500 -150,400 180,800 451,500 296,000 -95,400 -168,500 187,700 398,200 249,400 -38,800 -80,700 204,700 381,400 253,400 -23,200 -92,100 204,800 424,700 275,500 -22,200 -80,500 239,400 477,200 289,100 -34,400 -62,900 216,400 441,500 286,700 -59,400 -54,000 252,400 445,400 309,200 5,500 -34,300 264,900 468,400 314,600 5,600 -61,500 227,800 462,000 338,000 -47,800 -47,000 234,300 424,600 245,700 -36,700 -85,100 188,700 428,000 248,900 -41,300 -96,100 169,700 423,400 258,100 -61,800 -130,100 167,100 433,400 270,300 -56,900 -126,400 146,100 394,300 232,500 -102,800 -124,000 143,400 376,400 214,300 -87,500 -91,300 166,000 368,600 190,900 -93,900 -124,700 141,300 367,900 177,400 -124,700 -136,600 133,100 317,600 156,800 -127,900 -156,100 136,300 334,400 159,700 -135,300 -136,400 136,200 316,500 171,700 -161,100 -166,700 131,900 350,500 171,200 -114,100 -180,200 108,800 291,200 211,900 -105,500 -204,100 95,600 327,200 189,500 -177,300 -195,800 149,500 360,500 190,100 -159,600 -173,700 118,200 335,100 180,200 -148,500 -138,400 134,600 348,600 181,500 -163,800 -221,200 102,600 386,000 231,700 -118,700 -126,700 163,700 339,200 179,600 -128,000 -179,900 109,700 386,400 235,000 -99,000 -164,200 156,700 346,300 160,900 -96,400 -156,100 148,700 393,100 198,800 -142,100 -156,100 161,900 375,700 204,400 -112,300 -160,400 152,000 356,100 191,300 -96,900 -127,700 159,800 381,400 138,800 -134,000 -119,800 151,800 342,200 171,600 -135,200 -156,000 138,200 359,500 183,300 -97,000 -135,300 126,100 336,800 193,300 -169,200 -232,800 154,500 376,600 228,200 -100,400 -152,900 116,900 321,800 172,800 -172,500 -177,900 118,600 326,100 173,700 -146,700 -177,700 122,900 345,500 141,800 -199,700 -208,600 96,100 314,100 150,400 -169,900 -207,700 38,800 296,600 187,700 -119,100 -194,400 82,300 276,200 112,600 -196,000 -220,400 99,800 320,700 154,700 -191,500 -234,900 87,200 279,900 108,600 -204,700 -238,400 57,100 280,700 137,400 -172,900 -229,700 58,600 297,300 113,700 -207,700 -229,400 74,600 298,300 135,600 -185,100 -218,000 71,300 242,900 83,800 -200,600 -230,000 52,000 270,100 119,600 -201,100 -245,500 72,900 284,200 117,100 -164,800 -210,200 66,900 271,200 113,800 -202,400 -230,800 85,000 285,000 103,900 -199,400 -224,000 77,600 298,100 139,200 -173,600 -224,100 79,300 311,400 141,300 -176,100 -180,200 120,700 325,300 149,300 -179,800 -186,900 117,000 279,800 105,600 -172,400 -184,300 113,600 294,900 110,100 -199,000 -177,400 124,600 317,900 168,600 -146,600 -182,700 110,400 330,100 172,300 -149,500 -170,100 124,200 331,500 163,000 -149,800 -166,300 144,800 345,800 174,000 -119,100 -104,600 197,400 320,400 133,800 -181,200 -189,500 120,200 339,500 165,300 -149,600 -155,300 126,800 329,900 149,400 -169,700 -199,600 101,500 304,200 131,900 -178,400 -190,400 127,900 351,900 155,300 -178,000 -207,300 103,400 329,600 144,700 -159,500 -175,000 80,000 260,100 114,400 -174,700 -227,300 60,000 263,500 71,400 -238,500 -243,900 61,100 248,900 83,600 -223,500 -251,400 43,400 249,300 86,100 -201,400 -261,800 12,600 253,400 47,100 -270,300 -288,800 4,500 192,700 37,300 -267,000 -282,400 12,300 205,500 27,500 -278,900 -302,400 -4,100 208,900 12,100 -303,100 -292,000 4,100 181,000 29,800 -232,000 -273,800 -28,800 162,700 -49,600 -333,800 -328,900 -12,900 199,400 21,400 -298,100 -316,200 -36,300 136,000 -7,200 -303,600 -301,300 -4,400 159,500 -29,800 -310,800 -311,500 -14,000 194,100 19,000 -297,400 -308,200 -24,700 179,500 16,900 -291,000 -252,300 71,700 190,400 -10,300 -276,700 -263,900 -29,900 151,500 -1,300 -267,700 -279,100 -12,300 172,700 8,000 -280,600 -287,300 2,400 166,200 22,000 -276,500 -290,200 22,000 204,200 12,600 -258,100 -290,800 14,500 223,500 -10,400 -270,800 -259,900 68,200 298,800 34,600 -327,800 -311,400 -13,600 141,700 -0,700 -274,700 -260,900 42,900 207,500 23,500 -243,400 -267,100 8,700 214,900 37,100 -277,000 -296,600 22,900 230,400 80,100 -240,900 -239,500 53,900 238,000 98,300 -214,800 -230,400 43,800 268,700 85,900 -250,300 -226,800 58,200 239,200 128,600 -152,900 -200,000 37,300 201,100 40,700 -272,500 -210,900 102,100 263,100 50,200 -298,100 -310,100 85,300 301,600 83,000 -250,100 -241,600 42,000 190,400 51,500 -232,100 -249,400 73,000 227,600 62,600 -224,000 -212,300 53,500 207,800 36,500 -261,700 -235,900 77,900 227,600 36,400 -195,500 -231,300 28,700 174,000 -19,200 -316,300 -258,800 56,100 218,000 12,400 -264,400 -261,700 -10,600 224,800 52,400 -219,900 -238,900 17,300 187,700 -15,000 -303,400 -274,900 62,600 251,800 41,400 -252,200 -312,700 -44,200 132,400 -7,900 -219,200 -253,900 34,800 198,100 -14,200 -315,300 -283,700 -16,200 135,800 77,100 -279,500 -311,800 5,800 200,700 12,800 -305,000 -326,100 -20,600 171,200 -37,400 -320,300 -298,500 -1,000 190,200 -15,600 -316,800 -334,600 -92,900 164,400 44,700 -280,400 -284,000 -18,700 153,800 -3,800 -301,500 -459,800 -30,400 241,800 -13,800 -310,100 -274,700 27,500 183,100 -25,200 -336,300 -317,500 -10,700 168,800 -27,700 -325,100 -289,000 60,400 177,500 -57,900 -324,600 -342,800 23,200 205,800 -46,100 -347,000 -291,100 73,300 171,400 -34,400 -287,800 -273,000 -9,100 183,800 5,800 -284,000 -257,900 32,000 190,900 -6,400 -311,000 -268,000 20,600 211,600 17,100 -298,500 -272,300 61,800 207,300 -25,600 -317,200 -260,700 43,300 156,300 -23,300 -290,900 -261,400 52,400 204,900 5,500 -280,400 -266,100 36,000 206,200 -18,000 -308,900 -264,300 45,100 216,500 -1,300 -259,600 -235,300 2,500 197,200 -0,300 -277,300 -260,900 7,200 161,300 -28,800 -295,400 -277,100 22,300 205,900 9,900 -314,100 -298,300 9,900 194,900 2,700 -312,100 -317,500 6,500 180,700 -51,100 -314,400 -316,900 18,600 197,900 -25,100 -310,100 -309,400 -13,500 185,300 -53,700 -352,100 -305,700 -18,900 126,900 -64,800 -310,700 -276,000 -3,000 123,700 -77,800 -347,000 -292,600 20,200 132,000 -50,400 -337,600 -274,500 48,600 140,500 -104,600 -362,600 -322,700 -12,900 141,800 -65,800 -351,400 -290,500 15,900 142,400 -70,100 -384,900 -338,900 -15,600 130,900 -45,500 -336,200 -288,100 10,500 111,700 -84,900 -347,300 -319,200 3,700 167,300 -66,600 -310,600 -297,400 -4,600 151,800 -66,500 -346,900 -304,400 9,400 168,000 -15,500 -304,400 -322,700 -30,900 167,400 -32,300 -326,700 -298,100 -3,700 162,500 -79,700 -358,600 -317,800 8,600 188,800 -32,400 -323,400 -305,800 12,600 193,500 -32,500 -319,400 -291,900 22,000 153,500 -66,300 -332,300 -257,300 31,200 144,200 -62,600 -293,600 -278,800 42,700 155,200 -77,900 -339,300 -280,200 -5,200 147,800 -53,400 -331,500 -271,200 31,900 194,900 -22,800 -355,700 -314,800 21,800 185,600 -41,500 -333,700 -245,600 22,000 158,900 -0,100 -352,400 -317,800 -9,300 182,700 -12,100 -346,700 -277,500 27,200 139,000 -60,300 -341,900 -295,700 5,400 161,000 -41,500 -307,700 -273,900 18,200 161,400 -58,300 -341,900 -287,600 41,000 175,800 -45,300 -341,400 -330,700 -6,300 152,200 -38,000 -335,900 -295,300 7,900 155,700 -59,500 -329,600 -287,300 3,800 143,500 -72,400 -347,800 -284,100 10,600 136,400 -85,800 -346,200 -303,900 -0,800 122,100 -118,300 -378,400 -305,600 27,600 204,800 -33,000 -366,700 -326,000 -12,400 123,000 -71,900 -356,000 -320,300 -1,700 117,000 -97,100 -362,200 -298,700 13,500 140,500 -65,700 -347,700 -298,100 4,400 157,900 -27,300 -300,100 -298,300 -5,100 106,100 -180,600 -405,000 -302,600 57,500 193,200 -47,600 -321,100 -243,900 48,400 183,900 -36,700 -335,800 -257,800 56,400 189,200 -69,300 -357,000 -277,700 59,300 173,600 -65,900 -348,300 -311,800 -14,800 103,300 -81,300 -364,300 -303,400 -6,300 104,700 -77,700 -390,300 -365,800 -7,000 125,700 -115,500 -392,000 -342,400 -51,200 82,500 -59,700 -336,800 -345,400 -42,900 94,900 -97,400 -410,100 -363,200 -49,000 118,700 -105,800 -430,000 -328,900 -25,200 145,300 -91,600 -379,700 -328,600 -73,300 53,600 -54,200 -311,000 -301,200 -25,600 97,700 -154,100 -328,600 -254,900 29,300 162,900 -52,900 -385,000 -292,700 72,500 190,900 -35,700 -325,500 -290,800 30,700 202,300 -59,900 -332,500 -220,900 80,300 129,700 -51,100 -330,500 -259,900 72,600 231,300 -14,300 -328,600 -264,000 68,600 160,900 -43,900 -295,100 -236,700 82,000 227,700 4,300 -322,300 -288,300 85,800 213,000 34,000 -276,500 -221,200 146,400 254,300 25,500 -246,100 -209,300 118,600 215,800 31,100 -207,800 -185,600 150,100 283,100 60,000 -258,400 -180,400 163,300 331,700 85,500 -207,400 -199,000 88,000 316,900 88,100 -207,500 -140,400 148,200 328,300 144,600 -184,200 -148,800 190,500 295,300 94,700 -147,200 -117,600 207,300 330,100 58,900 -188,100 -92,300 205,600 370,800 153,700 -202,100 -102,200 231,800 305,300 95,500 -181,100 -103,700 230,800 385,200 136,400 -149,400 -199,700 142,000 383,200 132,700 -162,900 -58,700 187,200 317,100 124,400 -182,800 -67,000 262,100 334,900 53,500 -173,700 -92,300 220,300 308,500 86,200 -235,100 -143,500 126,800 296,000 90,200 -154,400 -111,500 172,900 262,500 45,300 -202,400 -176,800 141,400 299,400 36,200 -282,500 -164,700 141,300 220,200 -15,700 -258,500 -176,500 110,600 249,300 6,300 -255,800 -228,300 142,200 278,600 -20,300 -395,500 -271,400 97,100 207,100 5,000 -257,400 -260,500 19,800 191,100 -83,700 -323,200 -236,000 83,300 191,400 -109,400 -342,500 -239,200 103,400 185,500 -107,500 -438,800 -261,700 81,900 201,100 -45,600 -335,800 -237,000 71,000 192,400 -69,800 -339,500 -254,100 33,800 202,800 -44,300 -333,300 -278,600 34,000 155,000 -75,100 -324,300 -219,900 122,300 253,500 -82,600 -336,700 -291,400 66,400 205,900 -17,300 -249,100 -186,300 127,900 255,200 -24,000 -308,300 -288,700 56,100 221,000 36,600 -238,900 -159,400 135,200 240,400 3,300 -258,000 -169,400 160,400 281,200 -12,400 -370,200 -183,300 222,100 297,600 12,500 -229,800 -123,000 168,900 282,600 0,300 -291,900 -175,800 180,100 281,600 50,100 -202,000 -113,800 180,200 135,700 -7,800 -151,100 -98,000 218,400 325,700 68,300 -215,900 -136,900 186,700 281,300 36,100 -209,100 -200,900 117,800 399,300 65,200 -218,300 -122,900 184,000 275,200 40,900 -225,400 -179,400 118,800 258,700 -1,200 -203,100 -173,300 192,500 274,200 65,900 -185,400 -149,200 123,000 297,600 13,000 -263,800 -150,000 189,700 297,900 7,700 -277,400 -207,700 123,800 258,900 7,100 -243,600 -194,100 108,700 227,300 -83,400 -285,700 -211,000 120,500 234,100 -20,000 -309,300 -251,200 82,000 137,000 -26,600 -294,600 -210,900 115,300 211,600 -53,500 -314,300 -244,000 -9,900 203,600 -38,300 -316,100 -240,200 65,000 162,400 -83,300 -318,400 -238,300 -31,200 106,200 -52,700 -326,500 -259,900 49,700 158,400 -101,600 -384,000 -302,200 30,800 119,200 -103,700 -365,700 -363,700 106,900 185,000 -107,200 -301,000 -301,900 16,000 115,500 -87,600 -368,200 -276,400 43,800 160,400 -72,200 -339,100 -265,600 53,400 173,500 -91,300 -357,600 -242,800 78,500 153,500 -91,400 -312,000 -311,500 42,100 228,900 -11,300 -285,100 -222,000 52,400 214,500 -63,300 -351,300 -177,100 101,400 164,500 -84,800 -293,200 -184,200 133,000 210,700 -51,100 -291,900 -210,700 137,900 217,600 -37,800 -287,900 -218,000 93,100 175,700 17,900 -247,100 -148,500 110,500 210,300 -30,400 -269,800 -157,200 171,200 256,200 -31,500 -271,200 -161,100 161,400 208,400 -43,300 -287,200 -158,100 166,800 222,300 -45,900 -375,600 -143,600 179,500 256,900 33,600 -268,700 -155,100 183,000 217,700 -31,900 -273,200 -157,600 165,500 250,200 10,800 -310,600 -205,700 209,400 271,700 -29,700 -261,800 -169,300 133,000 214,400 -38,600 -293,800 -173,500 160,300 197,400 -96,300 -268,100 -132,700 176,000 247,600 -46,100 -291,600 -180,100 107,300 164,400 -104,300 -358,400 -181,700 159,400 247,700 -51,300 -324,200 -216,500 75,400 145,000 -92,600 -316,200 -199,400 115,800 182,200 -98,600 -337,100 -252,200 13,800 200,100 -65,300 -354,800 -249,700 16,900 136,200 -115,500 -314,300 -208,800 59,300 157,400 -99,500 -367,000 -331,400 51,000 174,500 -123,900 -383,300 -253,200 78,700 171,700 -134,400 -400,200 -271,600 59,200 149,000 -106,600 -364,500 -286,200 -7,000 139,800 -55,700 -287,900 -262,200 44,900 163,400 -95,900 -362,500 -281,000 33,200 134,300 -92,600 -333,000 -253,700 79,900 151,600 -118,400 -343,600 -221,100 48,000 82,800 -67,500 -312,600 -208,800 107,400 186,400 -74,300 -330,900 -253,300 78,000 172,300 -104,100 -336,900 -253,700 138,300 233,900 -60,900 -331,900 -210,600 93,600 176,300 -92,000 -349,300 -182,700 145,800 222,100 -74,500 -321,800 -194,000 150,900 180,800 -190,800 -298,300 -148,200 155,200 246,700 -22,700 -273,300 -180,700 123,300 204,500 -41,000 -294,400 -201,900 129,500 219,900 -56,200 -288,600 -184,800 131,900 246,800 -11,300 -299,600 -196,600 149,300 190,100 -107,600 -265,000 -133,900 185,700 249,100 -27,700 -263,600 -184,600 100,400 203,600 -39,200 -267,000 -153,600 136,600 238,500 -53,700 -303,100 -180,300 147,900 215,200 -62,600 -310,600 -197,300 146,700 241,900 -62,200 -303,800 -197,500 123,100 200,800 -58,800 -293,400 -170,500 139,600 223,000 -51,700 -314,200 -177,900 136,600 234,500 -46,600 -288,500 -161,500 132,800 194,200 -78,900 -332,200 -199,700 119,500 185,500 -91,200 -307,300 -187,600 120,800 171,200 -85,200 -324,700 -223,800 105,600 191,400 -73,400 -330,600 -207,600 137,000 195,400 -130,800 -366,600 -245,300 78,500 155,400 -109,700 -343,900 -199,400 108,800 161,900 -106,800 -348,500 -243,100 61,300 139,700 -130,300 -340,600 -197,600 90,200 149,400 -135,700 -356,100 -237,800 62,800 142,300 -127,100 -357,300 -233,500 85,700 158,700 -133,600 -362,400 -244,000 65,700 135,400 -118,700 -367,500 -242,400 65,700 132,300 -122,900 -362,600 -235,500 51,100 146,300 -83,100 -326,600 -203,900 88,700 165,000 -102,600 -400,500 -276,300 54,400 157,500 -103,800 -386,500 -275,200 46,600 112,800 -147,200 -381,300 -251,400 54,600 123,100 -163,900 -409,200 -288,400 8,600 98,300 -170,300 -424,700 -298,300 27,800 82,300 -184,700 -424,400 -285,500 23,600 120,100 -116,900 -372,800 -290,800 37,000 127,900 -128,000 -401,200 -315,300 1,200 119,900 -127,200 -387,300 -300,900 11,900 82,400 -194,200 -398,400 -261,600 35,900 108,800 -199,000 -364,500 -230,200 43,800 112,500 -145,400 -384,900 -229,200 49,200 114,000 -139,800 -341,100 -221,900 89,400 123,300 -161,800 -355,900 -190,800 132,100 184,800 -178,300 -383,500 -169,200 109,900 187,000 -99,600 -328,400 -190,400 115,500 175,400 -78,700 -329,900 -221,700 104,900 203,100 -58,100 -302,100 -175,400 102,800 213,300 -31,700 -294,900 -159,000 161,000 200,700 -88,200 -276,400 -140,700 189,600 212,800 -82,300 -243,100 -128,300 182,200 239,500 -140,700 -322,100 -157,700 143,100 208,900 -44,500 -268,500 -198,300 108,200 161,400 -106,900 -358,400 -201,100 120,400 164,500 -77,200 -318,000 -196,800 123,400 156,300 -108,600 -340,900 -199,000 123,800 164,100 -152,600 -327,300 -182,100 136,000 163,100 -165,700 -337,700 -192,900 69,600 98,700 -138,100 -356,400 -197,700 93,300 143,500 -124,000 -391,500 -265,800 54,000 105,700 -167,800 -369,200 -208,700 106,600 128,700 -178,500 -382,600 -224,800 94,300 117,200 -166,200 -372,100 -219,000 53,000 101,000 -167,200 -353,200 -204,000 73,500 110,800 -135,800 -365,200 -237,200 74,700 118,700 -141,400 -341,400 -210,000 97,100 141,000 -153,700 -369,200 -257,900 26,600 140,000 -90,800 -352,600 -211,400 90,300 147,400 -142,700 -411,600 -368,700 108,800 182,800 -141,200 -345,300 -204,800 106,500 126,000 -172,400 -381,000 -230,500 104,700 135,000 -157,800 -364,400 -217,000 94,600 133,400 -164,600 -380,500 -198,100 107,400 132,100 -148,700 -338,700 -181,600 85,100 111,000 -144,800 -333,900 -189,100 102,400 154,100 -145,400 -355,200 -204,000 83,400 132,100 -134,600 -352,600 -194,000 79,600 80,100 -119,800 -334,000 -171,500 121,100 109,200 -190,900 -401,400 -253,000 119,500 145,400 -121,100 -316,200 -195,500 71,300 110,400 -164,900 -358,100 -194,400 123,400 150,200 -144,500 -339,800 -183,400 94,200 70,800 -154,200 -328,300 -184,500 94,700 106,700 -137,700 -353,200 -223,400 6,300 45,100 -96,700 -340,800 -196,900 125,300 136,900 -154,000 -348,700 -189,700 74,200 104,500 -173,700 -386,000 -201,900 105,000 108,700 -160,700 -355,400 -229,800 37,200 134,800 -127,000 -369,200 -222,900 57,600 102,900 -195,200 -343,200 -206,400 91,600 122,400 -175,200 -391,700 -220,300 69,700 91,800 -189,200 -390,900 -203,200 85,900 87,900 -207,900 -413,400 -230,400 23,700 13,600 -142,900 -324,300 -227,600 46,400 75,700 -196,400 -389,100 -231,200 71,400 58,100 -253,600 -388,600 -225,000 71,700 105,800 -181,400 -388,500 -241,700 57,600 85,500 -166,100 -361,100 -217,700 26,900 57,600 -253,800 -446,000 -168,100 101,200 88,300 -198,900 -388,300 -206,000 88,900 101,900 -191,900 -408,100 -251,600 45,700 92,100 -141,900 -342,400 -203,300 84,400 96,400 -207,300 -376,700 -183,000 97,200 103,200 -193,600 -385,100 -220,300 41,600 81,300 -130,100 -352,500 -189,300 90,900 110,300 -169,700 -358,200 -194,700 112,700 135,600 -160,000 -371,300 -181,300 105,700 134,600 -139,100 -355,000 -206,300 117,300 155,000 -149,700 -352,600 -189,900 110,000 118,700 -169,100 -363,900 -168,400 100,300 106,700 -162,000 -352,300 -172,600 121,400 132,200 -171,000 -359,000 -176,600 94,800 103,200 -161,500 -344,500 -206,900 74,900 91,200 -211,800 -383,700 -219,500 92,900 111,700 -188,800 -384,500 -206,400 85,900 120,600 -136,000 -354,500 -181,800 107,300 87,900 -206,500 -403,000 -232,500 55,100 89,500 -163,500 -393,600 -225,500 118,700 89,500 -197,300 -333,200 -177,200 61,400 104,400 -162,600 -408,300 -260,000 54,500 88,700 -186,700 -388,900 -218,200 96,500 107,600 -218,600 -391,600 -210,500 60,500 88,600 -198,000 -395,900 -220,700 78,800 22,500 -216,100 -370,700 -205,900 92,400 91,700 -181,300 -412,200 -227,400 95,400 99,300 -173,400 -334,500 -207,500 49,400 66,900 -197,800 -386,800 -212,900 93,100 105,400 -148,700 -340,800 -170,400 111,600 102,300 -211,100 -393,200 -240,400 15,500 97,500 -156,300 -381,100 -201,800 101,200 72,300 -248,400 -429,500 -245,000 68,800 55,900 -248,300 -434,400 -254,500 21,000 19,500 -275,900 -451,900 -272,200 23,600 60,200 -231,200 -438,400 -273,500 50,600 99,500 -179,100 -434,200 -389,500 -114,200 123,600 -117,100 -411,600 -237,500 74,400 78,700 -204,800 -395,600 -223,400 67,000 64,900 -246,000 -421,200 -216,600 75,700 76,500 -213,900 -363,200 -174,300 97,600 67,900 -225,800 -475,300 -301,900 135,800 190,500 -167,500 -383,900 -210,200 93,200 111,900 -217,000 -391,400 -178,200 128,500 135,300 -169,200 -377,600 -206,500 88,200 68,800 -230,500 -379,800 -161,700 108,500 126,300 -164,200 -385,900 -200,300 128,600 131,000 -173,000 -384,900 -88,600 186,800 173,500 -124,700 -313,000 -122,400 195,600 199,000 -89,200 -243,500 -113,400 183,200 172,700 -111,100 -286,300 -67,400 209,700 176,600 -139,300 -317,700 -127,400 153,300 172,400 -142,400 -264,200 -128,700 234,200 217,300 -82,900 -265,000 -88,400 237,300 210,400 -118,700 -277,200 -113,500 270,900 294,100 -21,500 -269,400 -88,100 207,000 212,000 -87,100 -276,100 -43,600 226,100 204,300 -98,800 -254,500 -35,500 246,600 223,500 -111,600 -273,500 -43,200 236,800 254,500 -0,800 -161,200 2,800 256,200 184,200 -38,300 -199,800 -46,800 251,300 256,400 -46,000 -237,200 -9,900 298,300 275,700 -35,300 -254,700 -25,300 234,300 252,000 -13,400 -179,800 -9,600 295,600 284,000 -69,700 -195,000 -30,600 352,100 338,900 -70,100 -227,500 -29,900 281,800 298,700 -28,600 -204,200 8,000 303,200 233,200 -51,200 -181,700 -29,400 304,100 286,100 -66,100 -273,800 -35,200 309,300 244,400 -78,300 -247,100 -42,100 277,900 248,500 -78,800 -266,900 -75,800 228,000 208,500 -129,200 -293,200 -82,900 235,900 178,600 -131,300 -244,900 -37,300 204,600 182,500 -119,200 -274,700 -80,900 172,000 175,000 -122,800 -308,200 -101,300 202,800 138,100 -177,200 -324,900 -111,200 169,000 120,800 -152,400 -318,400 -127,400 146,800 145,000 -162,800 -337,700 -139,700 148,600 140,900 -159,400 -320,000 -122,100 169,100 119,900 -175,800 -303,800 -95,100 185,900 166,200 -177,800 -305,100 -109,200 116,200 127,700 -158,100 -307,400 -94,800 209,800 199,100 -130,700 -274,800 -73,300 197,600 138,600 -172,800 -266,600 -73,700 252,000 239,000 -115,400 -310,800 -40,700 175,400 140,800 -110,300 -269,900 -21,000 281,700 232,600 -85,400 -263,300 -64,700 193,000 157,900 -93,700 -225,800 -11,000 298,200 261,000 -47,100 -245,400 -24,100 276,700 260,800 -52,700 -212,700 -15,400 260,000 266,200 -51,100 -221,400 -33,400 189,700 191,700 -69,100 -200,900 9,000 311,800 253,400 -67,100 -225,100 -57,800 207,900 297,600 -61,300 -200,800 42,000 304,800 228,400 -84,800 -224,200 -59,800 213,400 160,000 -68,900 -220,600 -6,100 258,000 196,900 -97,900 -227,900 -31,700 217,300 160,100 -98,300 -251,100 12,200 255,100 142,900 -176,400 -243,500 -16,100 228,700 153,000 -128,300 -279,600 -94,700 223,400 198,000 -128,600 -346,400 -69,800 245,500 158,800 -149,900 -296,000 -57,300 228,700 166,500 -157,100 -303,200 -99,800 190,600 152,400 -151,200 -317,100 -82,100 157,600 140,900 -154,100 -330,300 -83,300 202,000 133,200 -158,900 -292,400 -129,800 193,600 144,000 -181,300 -283,700 -87,100 128,300 160,100 -136,800 -331,100 -65,500 210,900 126,900 -189,700 -322,000 -85,800 193,900 150,600 -158,900 -302,400 -87,900 209,200 172,400 -192,500 -345,900 -40,000 224,500 166,900 -162,200 -283,700 -83,300 221,300 185,400 -126,400 -303,600 -89,000 196,600 150,700 -186,500 -314,800 -63,600 214,800 153,500 -178,100 -283,500 -58,600 192,400 147,700 -134,400 -275,900 -66,700 191,600 167,600 -168,700 -287,400 -44,900 226,600 169,600 -127,800 -249,900 -35,000 261,300 196,700 -137,100 -319,900 -81,000 235,700 172,300 -127,200 -265,500 -30,500 237,900 177,000 -148,300 -273,900 -30,100 246,400 184,500 -128,400 -260,400 -16,500 257,100 194,500 -109,100 -237,000 42,900 344,400 200,500 -148,300 -257,500 -5,200 260,000 199,500 -107,100 -249,500 -21,200 247,800 209,300 -95,600 -222,700 7,300 283,800 208,600 -107,700 -244,400 -13,200 267,800 190,300 -107,000 -209,400 24,600 270,300 195,500 -83,000 -202,200 8,600 227,100 157,900 -149,800 -284,100 -28,400 240,300 199,800 -128,500 -291,900 -77,800 201,300 129,600 -178,000 -274,300 -46,400 191,100 125,300 -149,600 -282,300 -65,200 199,300 144,500 -170,400 -297,500 -59,300 220,900 171,500 -155,700 -334,600 -92,700 174,400 104,200 -191,900 -322,900 -96,400 190,800 132,500 -208,100 -361,700 -136,100 160,400 134,900 -140,600 -289,200 -66,900 204,600 93,100 -201,800 -311,500 -90,800 176,800 90,000 -225,500 -315,300 -68,300 148,500 67,500 -222,800 -338,600 -105,200 224,900 113,400 -258,700 -406,900 -186,700 74,100 48,500 -210,300 -340,400 -144,300 122,800 65,100 -267,100 -356,700 -112,800 134,400 45,700 -271,800 -375,700 -123,700 116,600 15,700 -281,600 -364,200 -128,600 134,400 13,000 -298,000 -358,600 -175,700 91,500 60,000 -260,600 -366,700 -130,400 125,400 54,